9.75323486328125
9.636346817016602
9.734710693359375
9.761545181274414
9.698622703552246
9.645439147949219
9.644304275512695
9.80135440826416
9.696654319763184
9.619168281555176
9.63491439819336
9.692914962768555
9.703113555908203
9.638339042663574
9.701778411865234
9.734691619873047
9.649066925048828
9.780795097351074
9.829716682434082
9.75710391998291
9.791553497314453
9.644749641418457
9.775152206420898
9.770490646362305
9.689523696899414
9.629983901977539
9.673781394958496
9.628987312316895
9.708795547485352
9.756260871887207
9.630061149597168
9.688323974609375
9.658332824707031
9.61152458190918
9.628381729125977
9.557622909545898
9.751954078674316
9.672035217285156
9.690098762512207
9.806690216064453
9.649750709533691
9.568338394165039
9.6847505569458
9.761794090270996
9.66018295288086
9.652639389038086
9.621330261230469
9.635403633117676
9.66219425201416
9.572558403015137
9.592635154724121
9.621100425720215
9.720921516418457
9.662742614746094
9.610343933105469
9.679740905761719
9.751006126403809
9.667374610900879
9.721420288085938
9.81386661529541
9.623826026916504
9.956547737121582
9.685471534729004
9.676026344299316
9.614109992980957
9.7103910446167
9.610638618469238
9.631901741027832
9.716854095458984
9.676119804382324
9.80075740814209
9.636627197265625
9.752018928527832
9.550884246826172
9.673426628112793
9.863874435424805
9.715387344360352
9.675107955932617
9.772729873657227
9.640520095825195
9.775777816772461
9.585771560668945
9.64956283569336
9.786462783813477
9.771860122680664
9.639700889587402
9.654767990112305
9.836984634399414
9.709351539611816
9.631277084350586
9.68635368347168
9.830997467041016
9.643290519714355
9.712862014770508
9.746492385864258
9.785085678100586
9.701751708984375
9.715152740478516
9.717562675476074
9.696479797363281
9.61805534362793
9.786113739013672
9.60734748840332
9.824506759643555
9.66285514831543
9.962995529174805
9.692721366882324
9.708969116210938
9.6746826171875
9.844825744628906
9.709147453308105
9.862533569335938
9.685211181640625
9.689924240112305
9.948770523071289
9.696785926818848
9.764081001281738
9.649615287780762
9.681324005126953
9.731767654418945
9.96685791015625
9.767751693725586
9.767176628112793
9.734378814697266
9.805047988891602
9.724441528320312
9.725432395935059
9.837284088134766
9.705120086669922
9.930134773254395
9.750760078430176
9.647747993469238
9.727543830871582
9.681123733520508
9.831117630004883
9.627931594848633
9.727364540100098
9.744412422180176
9.717552185058594
10.038506507873535
9.834259986877441
9.648086547851562
9.700567245483398
9.791994094848633
9.724392890930176
9.764992713928223
9.781338691711426
9.763765335083008
9.81008243560791
9.724154472351074
9.87148380279541
9.734964370727539
9.719053268432617
9.670753479003906
9.729961395263672
9.723197937011719
9.653703689575195
9.714456558227539
9.687541007995605
9.701807022094727
9.610357284545898
9.647985458374023
9.617344856262207
9.700153350830078
9.666593551635742
9.808832168579102
9.641999244689941
9.667613983154297
9.680413246154785
9.631085395812988
9.649801254272461
9.735660552978516
9.659208297729492
9.603910446166992
9.780733108520508
9.780067443847656
9.616482734680176
9.679845809936523
9.553544998168945
9.65458869934082
9.620874404907227
9.6547212600708
9.681653022766113
9.661728858947754
9.664387702941895
9.91856861114502
9.739133834838867
9.681756973266602
9.701725006103516
9.848573684692383
9.730151176452637
9.751028060913086
9.787701606750488
9.71603012084961
9.749661445617676
9.600358963012695
9.713403701782227
9.733596801757812
9.657358169555664
9.634522438049316
9.66004753112793
9.73106861114502
9.730461120605469
9.679506301879883
9.712453842163086
9.835506439208984
9.765725135803223
9.683710098266602
9.802656173706055
9.709461212158203
9.822548866271973
9.779403686523438
9.74221134185791
9.731654167175293
9.75481128692627
9.6686429977417
9.765581130981445
9.810988426208496
9.703876495361328
9.792342185974121
9.789901733398438
9.744819641113281
9.782718658447266
9.883151054382324
9.763160705566406
9.732377052307129
9.752983093261719
9.829118728637695
9.752666473388672
9.796209335327148
9.680935859680176
9.748320579528809
9.761165618896484
9.724405288696289
9.727916717529297
9.71017837524414
9.6847562789917
9.851651191711426
9.815439224243164
9.796600341796875
9.754125595092773
9.820673942565918
9.93065071105957
9.802331924438477
9.677807807922363
9.847617149353027
9.844169616699219
9.711845397949219
9.706846237182617
9.858745574951172
9.774673461914062
9.746520042419434
9.868058204650879
9.826224327087402
9.781139373779297
9.718420028686523
9.864498138427734
9.762462615966797
9.749881744384766
9.75352668762207
9.711447715759277
9.744747161865234
9.757159233093262
9.797998428344727
9.556260108947754
9.814241409301758
9.656013488769531
9.590555191040039
9.725957870483398
9.614818572998047
9.711454391479492
9.78895092010498
9.713611602783203
9.67607307434082
9.933971405029297
9.754377365112305
9.644716262817383
9.780231475830078
9.724822998046875
9.77072811126709
9.686927795410156
9.686790466308594
9.727485656738281
9.693729400634766
9.99913215637207
9.683484077453613
9.764720916748047
9.664756774902344
9.693336486816406
9.733254432678223
9.721794128417969
9.669485092163086
9.67291259765625
9.669255256652832
9.652023315429688
9.699921607971191
9.74026107788086
9.821121215820312
9.682269096374512
9.706886291503906
9.755290985107422
9.747257232666016
9.777078628540039
9.769006729125977
9.690553665161133
9.675578117370605
9.77694320678711
9.79013729095459
9.728899002075195
9.845598220825195
9.705904006958008
9.720768928527832
9.688794136047363
9.715848922729492
9.812692642211914
9.705652236938477
9.727587699890137
9.655675888061523
9.721680641174316
9.703865051269531
9.806065559387207
9.616334915161133
9.693400382995605
9.749180793762207
9.710256576538086
9.57518196105957
9.831295013427734
9.608181953430176
9.672708511352539
9.676422119140625
9.772154808044434
9.659245491027832
9.835022926330566
9.6897554397583
9.564477920532227
9.804914474487305
9.66309928894043
9.726463317871094
9.698272705078125
9.765779495239258
9.599871635437012
9.799169540405273
9.740008354187012
9.682109832763672
9.705509185791016
9.69726276397705
9.699169158935547
9.64952564239502
9.852834701538086
9.761462211608887
9.755401611328125
9.674041748046875
9.70797348022461
9.729994773864746
9.830232620239258
9.774542808532715
9.723052978515625
9.735908508300781
9.81985092163086
9.729697227478027
9.763227462768555
9.750908851623535
9.865178108215332
9.69548225402832
9.715032577514648
9.935091972351074
9.763102531433105
9.785521507263184
9.749887466430664
9.737383842468262
9.740927696228027
9.717185974121094
9.847370147705078
9.781557083129883
9.811235427856445
9.849037170410156
9.718483924865723
9.880071640014648
9.77681827545166
9.738261222839355
9.849508285522461
9.796598434448242
9.883344650268555
9.886262893676758
9.832085609436035
9.728988647460938
10.023772239685059
9.786542892456055
9.777832984924316
9.857876777648926
9.742303848266602
9.680681228637695
9.848946571350098
9.717087745666504
9.769161224365234
9.756474494934082
10.069750785827637
9.70003604888916
9.826582908630371
9.757942199707031
9.774734497070312
9.867273330688477
9.80099105834961
9.822810173034668
9.76196002960205
9.905538558959961
9.697768211364746
9.801972389221191
9.819011688232422
9.797330856323242
9.735115051269531
9.749421119689941
9.772292137145996
9.735078811645508
9.743154525756836
9.787114143371582
9.919855117797852
9.81265640258789
9.716681480407715
9.77828311920166
9.779168128967285
9.68264102935791
9.793922424316406
9.847930908203125
9.784472465515137
9.661368370056152
9.767643928527832
9.950510025024414
9.828165054321289
9.782684326171875
9.988865852355957
9.810233116149902
9.682391166687012
9.741345405578613
9.862336158752441
9.70635986328125
9.73299789428711
9.759492874145508
9.724586486816406
9.746110916137695
9.861313819885254
9.689153671264648
9.806681632995605
9.670713424682617
9.87565803527832
9.828561782836914
9.776192665100098
9.74570369720459
9.731366157531738
9.772895812988281
9.72018051147461
9.62703800201416
9.871851921081543
9.795753479003906
9.797992706298828
9.726871490478516
9.712679862976074
9.819352149963379
9.737998962402344
9.68179988861084
9.737388610839844
9.636244773864746
9.96458911895752
9.793564796447754
9.717758178710938
9.731250762939453
9.750632286071777
9.720281600952148
9.789275169372559
9.972368240356445
9.709710121154785
9.708114624023438
9.660346984863281
9.727624893188477
9.754463195800781
9.628426551818848
9.770215034484863
9.826919555664062
9.839405059814453
9.78519344329834
9.782668113708496
9.765998840332031
9.724384307861328
9.733692169189453
9.764918327331543
9.82877254486084
9.808502197265625
9.706164360046387
9.702397346496582
9.709500312805176
9.750904083251953
9.754984855651855
9.726068496704102
9.794272422790527
9.691394805908203
9.763971328735352
9.674217224121094
9.81680679321289
9.771439552307129
9.723065376281738
9.698189735412598
9.724589347839355
9.761085510253906
9.755071640014648
9.919708251953125
9.717596054077148
9.664422988891602
9.846753120422363
9.691905975341797
9.933420181274414
9.686479568481445
9.713887214660645
9.862720489501953
9.784862518310547
9.806633949279785
9.690701484680176
9.771844863891602
9.696516990661621
9.781803131103516
9.745384216308594
9.783746719360352
9.711323738098145
9.801870346069336
9.655550956726074
9.902273178100586
9.68718147277832
9.764161109924316
9.71825885772705
9.710320472717285
9.675950050354004
9.982446670532227
9.774322509765625
9.775066375732422
9.640243530273438
9.693770408630371
9.721688270568848
9.696167945861816
9.677786827087402
9.779291152954102
9.75485610961914
9.784652709960938
9.702300071716309
9.867443084716797
9.831429481506348
9.753461837768555
9.730669975280762
9.651098251342773
9.745840072631836
9.685298919677734
9.588912963867188
9.660372734069824
9.656494140625
9.736907958984375
9.781216621398926
9.72977066040039
9.655373573303223
9.672395706176758
9.761366844177246
9.619422912597656
9.657055854797363
9.972127914428711
9.666155815124512
9.77592945098877
9.668096542358398
9.66541576385498
9.825471878051758
9.701153755187988
9.583120346069336
9.689116477966309
9.654422760009766
9.738192558288574
9.765562057495117
9.566523551940918
9.873764991760254
9.705408096313477
9.660747528076172
9.67033576965332
9.67752742767334
9.627252578735352
9.692719459533691
9.66766357421875
9.797038078308105
9.746376991271973
9.646265983581543
9.592214584350586
9.637438774108887
9.726518630981445
9.669581413269043
9.587441444396973
9.562443733215332
9.777657508850098
9.640954971313477
9.726871490478516
9.657023429870605
9.94814395904541
9.71426010131836
9.584985733032227
9.653158187866211
9.58344841003418
9.723308563232422
9.695136070251465
9.92136001586914
9.78155517578125
9.604422569274902
9.881747245788574
9.62626838684082
9.796079635620117
9.65364933013916
9.778470993041992
9.724626541137695
9.838480949401855
9.73443603515625
9.658124923706055
9.732301712036133
9.670814514160156
9.758146286010742
9.728181838989258
9.5634126663208
9.732542991638184
9.720888137817383
9.705799102783203
9.970090866088867
9.698270797729492
9.808326721191406
9.776642799377441
9.640427589416504
9.59770393371582
9.755220413208008
9.799067497253418
9.685388565063477
9.752988815307617
9.789074897766113
9.59217643737793
9.787559509277344
9.693460464477539
9.73825740814209
9.604151725769043
9.74069595336914
9.701347351074219
9.728057861328125
9.69966983795166
9.667363166809082
9.720925331115723
9.676406860351562
9.700119018554688
9.699957847595215
9.869376182556152
9.733104705810547
9.677529335021973
9.877973556518555
9.523116111755371
9.735982894897461
9.64534854888916
9.772502899169922
9.652972221374512
9.697592735290527
9.626873970031738
9.68799114227295
10.002176284790039
9.781026840209961
9.68773078918457
9.783814430236816
9.780022621154785
9.77054500579834
9.692170143127441
9.79389762878418
9.57629680633545
9.762979507446289
9.814970970153809
9.76961612701416
9.758740425109863
9.791714668273926
9.72930908203125
9.580937385559082
9.57516098022461
9.802262306213379
9.582725524902344
9.589584350585938
9.742382049560547
9.953618049621582
9.536656379699707
9.681050300598145
9.684163093566895
9.559540748596191
9.708412170410156
9.675506591796875
9.70625114440918
9.821093559265137
9.853675842285156
9.507306098937988
9.525301933288574
9.766919136047363
9.531878471374512
9.660922050476074
9.739356994628906
9.646804809570312
9.502653121948242
9.655529022216797
9.806087493896484
9.8101806640625
9.760736465454102
9.601844787597656
9.519579887390137
9.529749870300293
9.665935516357422
9.515785217285156
9.698356628417969
9.883315086364746
9.822771072387695
9.884724617004395
9.605276107788086
9.834867477416992
9.733686447143555
9.733609199523926
9.664131164550781
9.61098861694336
9.740116119384766
9.57901668548584
9.848047256469727
9.7045259475708
9.769063949584961
9.793081283569336
9.791337966918945
9.699996948242188
9.755721092224121
9.7258939743042
9.712602615356445
9.549544334411621
9.562095642089844
9.756589889526367
9.726725578308105
9.705455780029297
9.669642448425293
9.457873344421387
9.727280616760254
9.654336929321289
9.58891487121582
9.690523147583008
9.530659675598145
9.581562995910645
9.737189292907715
9.677781105041504
9.68610954284668
9.700735092163086
9.619132995605469
9.681604385375977
9.742639541625977
9.788590431213379
9.760418891906738
9.715822219848633
9.567204475402832
9.629363059997559
9.850351333618164
9.573747634887695
9.835651397705078
9.870245933532715
9.74022388458252
9.727280616760254
9.67301082611084
9.75514030456543
9.9730224609375
9.599580764770508
9.738251686096191
9.588357925415039
9.77015495300293
9.68110466003418
9.688328742980957
9.646526336669922
9.776979446411133
9.758749961853027
9.752571105957031
9.566056251525879
9.83197021484375
9.597017288208008
9.642376899719238
9.548770904541016
9.710182189941406
9.71926498413086
9.918387413024902
9.830696105957031
9.713109970092773
9.695798873901367
9.70462703704834
9.781169891357422
9.5769624710083
9.70819091796875
9.771648406982422
9.790236473083496
9.743785858154297
9.723670959472656
9.812143325805664
9.78285026550293
9.742268562316895
9.62763500213623
9.62720775604248
9.777946472167969
9.624454498291016
9.776912689208984
9.767545700073242
9.621039390563965
9.491806030273438
9.631633758544922
9.7986478805542
9.62758731842041
9.722136497497559
9.79890251159668
9.650432586669922
9.81618881225586
9.618237495422363
9.81673812866211
9.697278022766113
9.523894309997559
9.594147682189941
9.76128101348877
9.724563598632812
9.792519569396973
9.612019538879395
9.515535354614258
9.567584037780762
9.804369926452637
9.548468589782715
9.550346374511719
9.624713897705078
9.64632511138916
9.344913482666016
9.54410457611084
9.580537796020508
9.318418502807617
9.50681209564209
9.731239318847656
9.712514877319336
9.704733848571777
9.813347816467285
9.65762996673584
9.849717140197754
9.60934066772461
9.569398880004883
9.700830459594727
9.757036209106445
9.54117202758789
9.691576957702637
9.539917945861816
9.855626106262207
9.807921409606934
9.760560035705566
9.938591957092285
9.713387489318848
9.551902770996094
9.680360794067383
9.619840621948242
9.901094436645508
9.932644844055176
9.568656921386719
9.744033813476562
9.823744773864746
9.721381187438965
9.861167907714844
9.74432373046875
9.732901573181152
9.765952110290527
9.678815841674805
9.657416343688965
9.740729331970215
9.78458309173584
9.598367691040039
9.74967098236084
9.739526748657227
9.701151847839355
9.735674858093262
9.61177921295166
9.707232475280762
9.694735527038574
9.68883228302002
9.707657814025879
9.646809577941895
9.770994186401367
9.782510757446289
9.61909294128418
9.719686508178711
9.694754600524902
9.805133819580078
9.615077018737793
9.595283508300781
9.541590690612793
9.450849533081055
9.585674285888672
9.645180702209473
9.734550476074219
9.633980751037598
9.741201400756836
9.714066505432129
9.635977745056152
9.714481353759766
9.459381103515625
9.668861389160156
10.00892448425293
9.818599700927734
9.729823112487793
9.64933967590332
9.740629196166992
9.709186553955078
9.597393035888672
9.683171272277832
9.697010040283203
9.647214889526367
9.753231048583984
9.635581016540527
9.6390962600708
9.642377853393555
9.718755722045898
9.584088325500488
9.897695541381836
9.668315887451172
9.906814575195312
9.688036918640137
9.639755249023438
9.74979019165039
9.802159309387207
9.741495132446289
9.684951782226562
9.751486778259277
9.778359413146973
9.666829109191895
9.735628128051758
9.721165657043457
9.636417388916016
9.769390106201172
9.619933128356934
9.878690719604492
9.78662395477295
9.688425064086914
9.563224792480469
9.574869155883789
9.745192527770996
9.786669731140137
9.890350341796875
9.662078857421875
9.704670906066895
9.710909843444824
9.658193588256836
9.460470199584961
9.648871421813965
9.710124015808105
9.650029182434082
9.661815643310547
9.608747482299805
9.824409484863281
9.620413780212402
9.43446159362793
9.464500427246094
9.681870460510254
9.823881149291992
9.909826278686523
9.697007179260254
9.611615180969238
9.604961395263672
9.703446388244629
9.681663513183594
9.302632331848145
9.481729507446289
9.695146560668945
9.278425216674805
9.486263275146484
9.770962715148926
9.625137329101562
9.598348617553711
9.444876670837402
9.588444709777832
9.713051795959473
9.633055686950684
9.731794357299805
9.745861053466797
9.559029579162598
9.665911674499512
9.75249195098877
9.594850540161133
9.733444213867188
9.732147216796875
9.722434997558594
9.746233940124512
9.708374977111816
9.553693771362305
9.728883743286133
9.671893119812012
9.799736976623535
9.760849952697754
9.790196418762207
9.78471565246582
9.581151962280273
9.500162124633789
9.822322845458984
9.870100975036621
9.856867790222168
9.685172080993652
9.756129264831543
9.523527145385742
9.76174545288086
9.733564376831055
9.729982376098633
9.746143341064453
9.494607925415039
9.670823097229004
9.749189376831055
9.736959457397461
9.685342788696289
9.740128517150879
9.648883819580078
9.562175750732422
9.719250679016113
9.77811050415039
9.80058765411377
9.580602645874023
9.629923820495605
9.801360130310059
9.739556312561035
9.81039810180664
9.392794609069824
9.686309814453125
9.713403701782227
9.651718139648438
9.452974319458008
9.639829635620117
9.514123916625977
9.624847412109375
9.69682502746582
9.694958686828613
9.55731201171875
9.893177032470703
9.779214859008789
9.647150993347168
9.767343521118164
9.627914428710938
9.662561416625977
9.807685852050781
9.521716117858887
9.600749969482422
9.605278968811035
9.73796272277832
9.743956565856934
9.707929611206055
9.687246322631836
9.66253662109375
9.784361839294434
9.650657653808594
9.87120532989502
9.62243366241455
9.799979209899902
9.995819091796875
9.814952850341797
9.515348434448242
9.712430000305176
9.62746810913086
9.745957374572754
9.650599479675293
9.7718505859375
9.757107734680176
9.679679870605469
9.640060424804688
9.517200469970703
9.749429702758789
9.653313636779785
9.564848899841309
9.74351978302002
9.351882934570312
9.597820281982422
9.687554359436035
9.577544212341309
9.714792251586914
9.430418968200684
9.578390121459961
9.608746528625488
9.7260160446167
9.574880599975586
9.638215065002441
9.56730842590332
9.642048835754395
9.592926979064941
9.731895446777344
9.639846801757812
9.744704246520996
9.920297622680664
9.614931106567383
9.792146682739258
9.537179946899414
9.641502380371094
9.782865524291992
9.63497257232666
9.453824996948242
9.837844848632812
9.71790885925293
9.707503318786621
9.790127754211426
9.736783027648926
9.725189208984375
9.82683277130127
9.383840560913086
9.578910827636719
9.709378242492676
9.823062896728516
9.766005516052246
9.51952075958252
9.608013153076172
9.695219039916992
9.45467758178711
9.734222412109375
9.668397903442383
9.737356185913086
9.729263305664062
9.771163940429688
9.803728103637695
9.702603340148926
9.677006721496582
9.404112815856934
9.650110244750977
9.703182220458984
9.706719398498535
9.695112228393555
9.580950736999512
9.745417594909668
9.694196701049805
9.64040470123291
9.759805679321289
9.810785293579102
9.834232330322266
9.574185371398926
9.447956085205078
9.43433952331543
9.78073501586914
9.817452430725098
9.623883247375488
9.435113906860352
9.75078010559082
9.627249717712402
9.409370422363281
9.679518699645996
9.784144401550293
9.675381660461426
9.928085327148438
9.394651412963867
9.54653549194336
9.598145484924316
9.710746765136719
9.744467735290527
9.731680870056152
9.712888717651367
9.702618598937988
9.645328521728516
9.874666213989258
9.688883781433105
9.763702392578125
9.262842178344727
9.704484939575195
9.666583061218262
9.707235336303711
9.557981491088867
9.752225875854492
9.408974647521973
9.688414573669434
9.641554832458496
9.768839836120605
9.72909927368164
9.683890342712402
9.664824485778809
9.771303176879883
9.39118480682373
9.825732231140137
9.676854133605957
9.912904739379883
9.766324996948242
9.63132095336914
9.737078666687012
9.76997184753418
9.556560516357422
9.72632884979248
9.653090476989746
9.6389741897583
9.697524070739746
9.629390716552734
9.699493408203125
9.611627578735352
9.671308517456055
9.663799285888672
9.718669891357422
9.60049819946289
9.630189895629883
9.633987426757812
9.622763633728027
9.608221054077148
9.452651023864746
9.268121719360352
9.729743957519531
9.664133071899414
9.685017585754395
9.702689170837402
9.680832862854004
9.774269104003906
9.58798599243164
9.541875839233398
9.760828018188477
9.68996524810791
9.682891845703125
9.49210262298584
9.87319564819336
9.68894100189209
9.693608283996582
9.795299530029297
9.753931045532227
9.764069557189941
9.622633934020996
9.767906188964844
9.424596786499023
9.713744163513184
9.323573112487793
9.750551223754883
9.41826057434082
9.697707176208496
9.732871055603027
9.748784065246582
9.795316696166992
9.693004608154297
9.700714111328125
9.885970115661621
9.974310874938965
9.741132736206055
9.477466583251953
9.545994758605957
9.641098976135254
9.410534858703613
9.631935119628906
9.683867454528809
9.653223991394043
9.407288551330566
10.117814064025879
9.705687522888184
9.763436317443848
9.837494850158691
9.431302070617676
9.72811508178711
9.804323196411133
9.79137134552002
9.538369178771973
9.725634574890137
9.459625244140625
9.733966827392578
9.658223152160645
9.817138671875
9.758174896240234
9.363593101501465
9.6900053024292
9.583032608032227
9.853259086608887
9.61094856262207
9.718230247497559
9.715975761413574
9.656121253967285
9.708026885986328
9.7381591796875
9.655206680297852
9.771757125854492
9.526094436645508
9.618841171264648
9.702718734741211
9.727374076843262
9.621735572814941
9.607343673706055
9.337743759155273
9.665834426879883
9.738816261291504
9.716877937316895
9.78087329864502
9.51129150390625
9.85296630859375
9.690495491027832
9.362317085266113
9.230921745300293
9.599882125854492
9.679466247558594
9.689058303833008
9.696602821350098
9.74477481842041
9.290959358215332
9.726161003112793
9.559868812561035
9.763541221618652
9.777144432067871
9.681622505187988
9.414382934570312
9.411319732666016
9.700517654418945
9.705912590026855
9.656246185302734
9.644634246826172
9.685465812683105
9.784188270568848
9.88920783996582
9.639226913452148
9.662372589111328
9.706524848937988
9.776028633117676
9.622241973876953
9.341865539550781
9.779586791992188
9.462766647338867
9.743989944458008
9.384177207946777
9.645891189575195
9.748529434204102
9.439906120300293
9.77467155456543
9.730108261108398
9.728667259216309
9.424039840698242
9.69001579284668
9.764080047607422
9.79872989654541
9.972002029418945
9.788580894470215
9.711896896362305
9.560399055480957
9.470974922180176
9.434405326843262
9.737813949584961
9.814980506896973
9.485612869262695
9.789626121520996
10.035003662109375
9.722345352172852
9.73338508605957
9.689460754394531
9.543296813964844
9.808826446533203
9.696746826171875
9.76751708984375
9.543296813964844
9.673388481140137
9.61613941192627
9.7628755569458
9.754170417785645
9.653326034545898
9.778876304626465
9.65134048461914
9.735701560974121
9.78286075592041
9.849126815795898
9.826741218566895
9.75064754486084
9.676067352294922
9.464488983154297
9.478250503540039
9.707005500793457
9.782400131225586
9.724217414855957
9.653406143188477
9.47128677368164
9.700762748718262
9.512545585632324
9.829696655273438
9.605039596557617
9.326590538024902
9.585155487060547
9.64883041381836
9.652853965759277
9.718714714050293
9.659037590026855
9.815816879272461
9.716812133789062
9.1764554977417
9.735913276672363
9.589798927307129
9.810701370239258
9.65410041809082
9.810418128967285
9.302907943725586
9.768756866455078
9.725980758666992
9.149406433105469
9.580745697021484
9.689611434936523
9.5485200881958
9.621905326843262
9.74566650390625
9.73537826538086
9.666131019592285
9.735010147094727
9.403206825256348
9.754897117614746
9.29170036315918
9.692120552062988
9.780142784118652
9.735723495483398
9.721785545349121
9.702959060668945
9.732571601867676
9.832026481628418
9.645201683044434
9.738510131835938
9.59702205657959
9.58557415008545
9.749032974243164
9.210734367370605
9.749785423278809
10.140393257141113
9.692011833190918
9.666092872619629
9.692268371582031
9.668146133422852
9.721708297729492
9.435742378234863
9.556381225585938
9.625367164611816
9.623510360717773
9.69619369506836
9.707759857177734
9.707221984863281
9.627729415893555
9.699599266052246
9.992420196533203
9.681790351867676
9.522921562194824
9.490784645080566
9.260567665100098
9.043956756591797
9.772116661071777
9.707674026489258
9.323450088500977
9.81638240814209
9.644359588623047
9.7687406539917
9.453317642211914
9.67445182800293
9.80429458618164
9.645760536193848
9.66500186920166
9.700631141662598
9.850979804992676
9.752680778503418
9.82066822052002
9.528213500976562
9.3095703125
9.696368217468262
9.962186813354492
9.715461730957031
9.820318222045898
9.789981842041016
9.746030807495117
9.76799201965332
9.742953300476074
9.72934341430664
9.73867130279541
9.394779205322266
9.771942138671875
9.559701919555664
9.726188659667969
9.640435218811035
9.642609596252441
9.761701583862305
9.648345947265625
9.735509872436523
9.726264953613281
9.81981372833252
9.45783519744873
9.699164390563965
9.700297355651855
9.78184700012207
9.28613567352295
9.766571998596191
9.33554458618164
9.743223190307617
9.638254165649414
9.181029319763184
9.472294807434082
9.376023292541504
9.375661849975586
9.480628967285156
9.692854881286621
9.19111156463623
9.714703559875488
9.789667129516602
9.801027297973633
9.7285795211792
9.425678253173828
9.67131519317627
9.465056419372559
9.269363403320312
9.79605484008789
9.800882339477539
9.796686172485352
9.641642570495605
9.726510047912598
9.820595741271973
9.785539627075195
9.780939102172852
9.833561897277832
9.761343955993652
9.795475006103516
9.54130744934082
9.520490646362305
9.646339416503906
9.822894096374512
9.081889152526855
9.690326690673828
9.347800254821777
9.240362167358398
9.827220916748047
9.705424308776855
9.761448860168457
9.682904243469238
9.881166458129883
9.884334564208984
9.247386932373047
9.671216011047363
9.73417854309082
9.805992126464844
9.284798622131348
9.60170841217041
9.690537452697754
9.80219554901123
9.808812141418457
9.77283000946045
9.501029968261719
9.809115409851074
9.475927352905273
9.669635772705078
9.769543647766113
9.863082885742188
9.706695556640625
9.772960662841797
9.70559024810791
9.638233184814453
9.505459785461426
9.409479141235352
9.432184219360352
9.632268905639648
9.732466697692871
9.701509475708008
9.443964004516602
9.64957046508789
9.898286819458008
9.781081199645996
9.681456565856934
9.75083065032959
9.724491119384766
9.78024673461914
9.716398239135742
9.832053184509277
9.651494026184082
9.718574523925781
9.715715408325195
9.632266998291016
9.747237205505371
9.723906517028809
9.722545623779297
9.773405075073242
9.300573348999023
9.796342849731445
9.708158493041992
9.702325820922852
9.670343399047852
9.723501205444336
9.704676628112793
9.799704551696777
9.651134490966797
9.763982772827148
9.477945327758789
9.586697578430176
9.728428840637207
9.251473426818848
9.683147430419922
9.604887962341309
9.741716384887695
9.508228302001953
9.699655532836914
10.060558319091797
9.728986740112305
9.953975677490234
9.67594051361084
9.671942710876465
9.917173385620117
9.658134460449219
9.843524932861328
9.7219877243042
9.515518188476562
9.728227615356445
9.512263298034668
9.773588180541992
9.720548629760742
9.666329383850098
9.299715042114258
9.435246467590332
9.734140396118164
9.687369346618652
9.737921714782715
9.789324760437012
9.710905075073242
9.907798767089844
9.75004768371582
9.2590913772583
9.744192123413086
9.782378196716309
9.768653869628906
9.640115737915039
9.772537231445312
9.75975227355957
9.741121292114258
9.33680534362793
9.526698112487793
9.196638107299805
9.759828567504883
9.862129211425781
9.730997085571289
9.601350784301758
9.635063171386719
9.510695457458496
9.779706954956055
9.585558891296387
9.723752975463867
9.786413192749023
9.783275604248047
9.602333068847656
9.643698692321777
9.692087173461914
9.786304473876953
9.793293952941895
9.724862098693848
9.829290390014648
9.704564094543457
9.566998481750488
9.69948959350586
9.705853462219238
9.744736671447754
9.699361801147461
9.603250503540039
9.710201263427734
9.587472915649414
9.670187950134277
9.93262004852295
9.247940063476562
9.678301811218262
9.800884246826172
9.722928047180176
9.661216735839844
9.682650566101074
9.56319808959961
9.406754493713379
9.752300262451172
9.846308708190918
9.818839073181152
9.84920883178711
9.547516822814941
9.650361061096191
9.777446746826172
9.611234664916992
9.597631454467773
9.711162567138672
9.634618759155273
9.74294376373291
9.647433280944824
9.740640640258789
9.653456687927246
9.818643569946289
9.6183443069458
9.638322830200195
9.836036682128906
9.703778266906738
9.748231887817383
9.627683639526367
9.3251953125
9.410765647888184
9.793676376342773
9.803771018981934
8.997136116027832
9.334786415100098
9.433996200561523
9.558229446411133
9.773873329162598
9.208513259887695
9.841585159301758
9.617037773132324
9.380227088928223
9.619427680969238
9.712580680847168
9.666763305664062
9.701848983764648
9.602782249450684
9.45438003540039
9.640911102294922
9.542191505432129
9.4158935546875
9.34856128692627
9.78060531616211
9.516999244689941
9.551385879516602
9.716731071472168
9.615460395812988
9.84742546081543
9.427125930786133
9.646623611450195
9.250611305236816
9.754623413085938
9.758284568786621
9.612680435180664
9.759860038757324
9.595287322998047
9.647141456604004
9.712705612182617
9.226186752319336
9.764174461364746
9.727191925048828
9.327338218688965
9.617415428161621
9.656773567199707
9.650242805480957
9.76648235321045
9.678617477416992
9.652667045593262
9.440269470214844
9.701681137084961
9.282635688781738
9.296064376831055
9.766895294189453
9.592638969421387
9.60903549194336
9.252873420715332
9.72157096862793
9.613862991333008
9.724884986877441
9.725642204284668
9.602683067321777
9.663410186767578
9.720314979553223
9.339876174926758
9.380412101745605
9.618532180786133
9.793522834777832
9.76180362701416
9.601661682128906
9.716440200805664
9.6853609085083
9.59504508972168
9.345853805541992
9.246719360351562
9.754586219787598
9.45052719116211
9.594286918640137
9.738179206848145
9.56836223602295
9.738470077514648
9.766230583190918
9.727749824523926
9.705779075622559
9.619795799255371
9.601463317871094
9.748453140258789
9.623745918273926
9.655938148498535
9.789623260498047
9.68344497680664
9.411174774169922
9.459983825683594
9.64299201965332
9.335859298706055
9.762682914733887
9.733817100524902
9.414634704589844
9.445746421813965
9.301839828491211
9.19961929321289
9.77090835571289
9.593589782714844
9.654976844787598
9.409852981567383
9.641935348510742
9.541513442993164
9.775160789489746
9.693371772766113
9.785497665405273
9.617874145507812
9.880847930908203
9.67434310913086
9.822321891784668
9.696638107299805
9.684364318847656
9.75389575958252
9.52847957611084
9.277032852172852
9.121910095214844
9.603878021240234
9.731386184692383
9.813138008117676
9.662102699279785
9.698630332946777
9.740545272827148
9.737485885620117
9.681928634643555
9.64085578918457
9.765618324279785
9.652621269226074
9.598661422729492
9.649139404296875
9.510278701782227
9.378790855407715
9.392965316772461
9.301775932312012
9.662764549255371
10.015482902526855
9.950457572937012
9.732481956481934
9.665642738342285
9.489381790161133
9.19310474395752
9.82607364654541
9.67393684387207
9.723729133605957
9.615607261657715
9.720416069030762
9.66140365600586
9.709146499633789
9.724481582641602
9.226313591003418
9.71553897857666
9.325117111206055
9.636346817016602
9.686227798461914
9.754587173461914
9.558259010314941
9.74199104309082
9.677401542663574
9.316498756408691
9.7041597366333
9.413025856018066
9.856431007385254
9.09826374053955
9.721495628356934
9.737344741821289
9.649785995483398
9.632003784179688
9.079971313476562
9.719470977783203
9.609224319458008
9.643400192260742
9.612611770629883
10.085573196411133
9.875517845153809
9.679546356201172
9.798382759094238
9.661449432373047
9.682467460632324
9.778409004211426
9.659878730773926
9.529437065124512
9.684404373168945
9.561836242675781
9.73215389251709
9.696505546569824
9.610127449035645
9.355487823486328
9.643566131591797
9.655988693237305
9.728328704833984
9.581934928894043
9.682494163513184
9.368788719177246
9.419682502746582
9.241506576538086
9.421499252319336
9.73486614227295
9.584295272827148
9.713106155395508
9.65632438659668
9.503908157348633
9.588971138000488
9.347182273864746
9.412373542785645
9.669119834899902
9.720244407653809
9.6241455078125
9.712786674499512
9.563615798950195
9.692490577697754
9.326753616333008
9.63264274597168
9.690134048461914
9.690263748168945
9.169599533081055
9.457982063293457
9.7202730178833
9.708889961242676
9.631595611572266
9.74409008026123
9.62360668182373
9.188274383544922
9.60276985168457
9.512737274169922
9.633813858032227
9.65888786315918
9.753364562988281
9.767524719238281
9.498930931091309
9.481477737426758
9.621221542358398
9.725708961486816
9.661393165588379
9.55831241607666
9.604355812072754
9.719161033630371
9.77005672454834
9.512146949768066
9.646561622619629
9.698606491088867
9.626554489135742
9.742053031921387
9.727838516235352
9.545845031738281
9.542292594909668
9.56683349609375
9.686229705810547
9.687302589416504
9.595010757446289
9.769497871398926
9.764690399169922
9.479724884033203
9.733553886413574
9.628684043884277
9.5837984085083
9.618490219116211
9.693521499633789
9.728363990783691
9.724552154541016
9.805990219116211
9.559517860412598
9.655954360961914
9.666972160339355
9.761076927185059
9.653060913085938
9.590994834899902
9.658548355102539
9.60905933380127
9.537324905395508
9.754176139831543
9.50719165802002
9.612187385559082
9.727383613586426
9.760428428649902
9.625452041625977
9.625624656677246
9.696305274963379
9.654172897338867
9.551538467407227
9.163739204406738
9.60370922088623
9.629152297973633
9.467733383178711
9.215472221374512
9.68202018737793
9.694504737854004
9.678836822509766
9.552783012390137
9.736320495605469
9.65222454071045
9.648447036743164
9.747895240783691
9.59663200378418
9.68698787689209
9.627861022949219
9.593669891357422
9.310701370239258
9.678086280822754
9.46144962310791
9.709835052490234
9.742920875549316
9.663942337036133
9.731246948242188
9.719332695007324
9.273560523986816
9.700124740600586
9.717475891113281
9.673995018005371
9.7479887008667
9.936954498291016
9.496419906616211
9.766613960266113
9.635224342346191
9.741868019104004
9.665882110595703
9.52098274230957
9.332006454467773
9.848831176757812
9.97301959991455
9.59157943725586
9.287235260009766
9.719261169433594
9.690877914428711
9.440208435058594
9.67116928100586
9.742271423339844
9.571609497070312
9.597415924072266
9.788151741027832
9.721562385559082
9.840280532836914
9.449573516845703
9.626620292663574
9.336228370666504
9.578811645507812
9.719582557678223
9.64456844329834
9.578899383544922
9.368905067443848
9.689494132995605
9.672487258911133
9.728094100952148
9.402700424194336
9.123125076293945
9.61598014831543
9.626829147338867
9.659180641174316
9.677886009216309
9.618046760559082
9.716814994812012
9.505722999572754
9.340052604675293
9.729890823364258
9.82265853881836
9.338861465454102
9.672752380371094
9.677921295166016
9.519352912902832
9.564382553100586
9.692744255065918
9.740318298339844
9.648037910461426
9.591545104980469
9.662671089172363
9.563879013061523
9.815117835998535
9.572427749633789
9.64529037475586
9.591238021850586
9.31861686706543
9.490123748779297
9.643492698669434
9.724632263183594
9.77243709564209
9.331445693969727
9.614439010620117
9.559440612792969
9.70682144165039
9.607373237609863
9.64504337310791
9.679429054260254
9.684441566467285
9.798754692077637
9.785775184631348
9.59975528717041
9.42275619506836
9.598464012145996
9.706428527832031
9.519423484802246
9.661768913269043
9.760567665100098
9.29589557647705
9.647012710571289
9.682114601135254
9.593924522399902
9.709298133850098
9.799117088317871
9.721457481384277
9.713977813720703
9.707345962524414
9.685861587524414
9.844054222106934
9.747710227966309
9.46500015258789
9.783515930175781
9.45121955871582
9.622501373291016
9.682977676391602
9.697813034057617
9.598617553710938
9.557249069213867
9.750454902648926
9.699201583862305
9.744316101074219
9.781265258789062
9.58466911315918
9.783592224121094
9.744424819946289
9.755060195922852
9.735722541809082
9.500852584838867
9.683389663696289
9.727251052856445
9.745743751525879
9.621624946594238
9.470866203308105
9.645713806152344
9.598774909973145
9.7119779586792
9.502836227416992
9.64793586730957
9.66420841217041
9.721281051635742
9.769255638122559
9.459733009338379
9.609170913696289
9.360013008117676
9.654600143432617
9.380589485168457
9.798101425170898
9.207191467285156
9.730913162231445
9.599377632141113
9.689811706542969
9.270960807800293
9.602049827575684
9.637147903442383
9.638113975524902
9.565760612487793
9.375709533691406
9.719138145446777
9.28027629852295
9.82833480834961
9.651297569274902
9.612587928771973
9.835697174072266
9.454351425170898
9.915307998657227
9.89423656463623
9.577291488647461
9.66908073425293
9.69195556640625
9.547843933105469
9.676490783691406
9.61099910736084
9.438880920410156
9.640482902526855
9.68344783782959
9.666949272155762
9.785250663757324
9.297649383544922
9.575922966003418
9.323789596557617
9.798347473144531
9.35633659362793
9.807289123535156
9.645718574523926
9.626245498657227
9.658824920654297
9.881665229797363
9.334586143493652
9.698379516601562
9.602540969848633
9.399828910827637
9.730456352233887
9.619489669799805
9.568077087402344
9.666211128234863
9.840071678161621
9.21638298034668
9.651956558227539
9.804638862609863
9.75439453125
9.631321907043457
9.812932968139648
9.726560592651367
9.575526237487793
9.75075912475586
9.514007568359375
9.667559623718262
9.674186706542969
9.650823593139648
9.589237213134766
9.671948432922363
9.758501052856445
9.566610336303711
9.215997695922852
9.506586074829102
9.794805526733398
9.673235893249512
9.685565948486328
9.42140007019043
9.502768516540527
9.601325035095215
9.621025085449219
9.564414024353027
9.706578254699707
9.64438533782959
9.70700740814209
9.58934211730957
9.886800765991211
9.59022045135498
9.75129222869873
9.534795761108398
9.317996978759766
9.654656410217285
9.582540512084961
9.689743041992188
9.776368141174316
9.18787670135498
9.964923858642578
9.575044631958008
9.696117401123047
9.648473739624023
9.690618515014648
9.767828941345215
9.773809432983398
9.357088088989258
9.731700897216797
9.381465911865234
9.493339538574219
9.264448165893555
9.122748374938965
9.506434440612793
9.721756935119629
9.442180633544922
9.806816101074219
9.629800796508789
9.655743598937988
9.666497230529785
9.672581672668457
9.611342430114746
9.607370376586914
9.580696105957031
9.722953796386719
9.705302238464355
9.459637641906738
9.642414093017578
9.59725284576416
9.21635627746582
9.585460662841797
9.644536972045898
9.304852485656738
9.737005233764648
9.537557601928711
9.651745796203613
9.398136138916016
9.379267692565918
9.540262222290039
9.59664249420166
9.625398635864258
9.762413024902344
9.721696853637695
9.288583755493164
9.597426414489746
9.335864067077637
9.678372383117676
9.742827415466309
9.868971824645996
9.241785049438477
9.746152877807617
9.757247924804688
9.270370483398438
9.779245376586914
9.759364128112793
9.714424133300781
9.383890151977539
9.704679489135742
9.707453727722168
9.316184997558594
9.83169937133789
9.709724426269531
9.686317443847656
9.556354522705078
9.561715126037598
9.73289680480957
9.628785133361816
9.603074073791504
9.753198623657227
9.459256172180176
9.413836479187012
9.744338035583496
9.628833770751953
9.401750564575195
9.688456535339355
9.711433410644531
9.638998031616211
9.5875244140625
9.368935585021973
9.633322715759277
9.482548713684082
9.700430870056152
9.755406379699707
9.269269943237305
9.629918098449707
9.695684432983398
9.673556327819824
9.21769905090332
9.595966339111328
9.79057788848877
9.720151901245117
9.550941467285156
9.644270896911621
9.733611106872559
9.750723838806152
9.726901054382324
9.66617202758789
9.816205024719238
9.750969886779785
9.628063201904297
9.599308013916016
9.524656295776367
9.61459732055664
9.752821922302246
9.494938850402832
9.667278289794922
9.638705253601074
9.649165153503418
9.615630149841309
9.638325691223145
9.671426773071289
9.514043807983398
9.736573219299316
9.723139762878418
9.80943489074707
9.680582046508789
9.750486373901367
9.657322883605957
9.65793514251709
9.725174903869629
9.176925659179688
9.732295989990234
9.740429878234863
9.741397857666016
9.716980934143066
9.593660354614258
9.756213188171387
9.248046875
9.449795722961426
9.709589004516602
9.69011402130127
9.658429145812988
9.604352951049805
9.391226768493652
9.745526313781738
9.601139068603516
9.738728523254395
9.71650505065918
9.635115623474121
9.582426071166992
9.718993186950684
9.277044296264648
9.62478256225586
9.628849029541016
9.710102081298828
9.225210189819336
9.537572860717773
9.456110000610352
9.502801895141602
9.586408615112305
9.621923446655273
9.593466758728027
9.203024864196777
9.739832878112793
9.646185874938965
9.673125267028809
9.714071273803711
9.866305351257324
9.55333423614502
9.833171844482422
9.309585571289062
9.772472381591797
9.67451286315918
10.032978057861328
9.79395866394043
9.72512149810791
9.129007339477539
9.7588472366333
9.788759231567383
9.722289085388184
9.695589065551758
9.867450714111328
9.942001342773438
9.607915878295898
9.578718185424805
9.780930519104004
9.612354278564453
9.553547859191895
9.58792495727539
9.661203384399414
9.72520637512207
9.713776588439941
9.641084671020508
9.708788871765137
9.587544441223145
9.646720886230469
9.721663475036621
9.301651000976562
9.639657020568848
9.453100204467773
9.621639251708984
9.586870193481445
9.653403282165527
9.68574047088623
9.679886817932129
9.65095329284668
9.716300010681152
9.297008514404297
9.815136909484863
9.706416130065918
9.650221824645996
9.54457950592041
9.576826095581055
9.769378662109375
9.764694213867188
9.137243270874023
9.361141204833984
9.684547424316406
9.439083099365234
9.370845794677734
9.759444236755371
9.522884368896484
9.456342697143555
9.63896369934082
9.786904335021973
9.455307960510254
9.693243026733398
9.744110107421875
9.43077278137207
9.766618728637695
9.562439918518066
9.56412124633789
9.228404998779297
9.491595268249512
9.608555793762207
9.694292068481445
9.682977676391602
9.764138221740723
9.595537185668945
9.716485977172852
9.624855995178223
9.56197452545166
9.541204452514648
9.650029182434082
9.62996768951416
9.787277221679688
9.414379119873047
9.679566383361816
9.548588752746582
9.779654502868652
9.713749885559082
9.386778831481934
9.457793235778809
9.718877792358398
9.39913272857666
9.756016731262207
9.647275924682617
9.763057708740234
9.682306289672852
9.611708641052246
9.716468811035156
9.916110038757324
9.732462882995605
9.467317581176758
9.450230598449707
9.576645851135254
9.936965942382812
9.686481475830078
9.738324165344238
9.676370620727539
9.642583847045898
9.69979190826416
9.69324779510498
9.708349227905273
9.51302433013916
9.830269813537598
9.796844482421875
9.8245267868042
9.506951332092285
9.667755126953125
9.66159439086914
9.644044876098633
9.681533813476562
9.575316429138184
9.618819236755371
9.520316123962402
9.70463752746582
9.404420852661133
9.753804206848145
9.312702178955078
9.611788749694824
9.66912841796875
9.643816947937012
9.862730026245117
9.45391845703125
9.660895347595215
9.717391014099121
9.601844787597656
9.572216033935547
9.604806900024414
9.75574016571045
9.680680274963379
9.235445022583008
9.57923698425293
9.719595909118652
9.68572998046875
9.397363662719727
9.652240753173828
9.639143943786621
9.554448127746582
9.368054389953613
9.782191276550293
9.72093391418457
9.441225051879883
9.4983491897583
9.762884140014648
9.631638526916504
9.571588516235352
9.584700584411621
9.70064926147461
9.630489349365234
9.571911811828613
9.610978126525879
9.707465171813965
9.365375518798828
9.755738258361816
9.415199279785156
9.563122749328613
9.676377296447754
9.738758087158203
9.610671997070312
9.205364227294922
9.619290351867676
9.747361183166504
9.45149040222168
9.613046646118164
9.745519638061523
9.396953582763672
9.58952808380127
9.299187660217285
9.57359790802002
9.758899688720703
9.747075080871582
9.588155746459961
9.652645111083984
9.62413215637207
9.70889663696289
9.651914596557617
9.853368759155273
9.722437858581543
9.625176429748535
9.776188850402832
9.57984447479248
9.729694366455078
9.709806442260742
9.645052909851074
9.470026969909668
9.302738189697266
9.618659973144531
9.515973091125488
9.559725761413574
9.623025894165039
9.516021728515625
9.931224822998047
9.684104919433594
9.731158256530762
9.651520729064941
9.661081314086914
9.487472534179688
9.577956199645996
9.754865646362305
9.562857627868652
9.722548484802246
9.488396644592285
9.624581336975098
9.795812606811523
9.593748092651367
9.346516609191895
9.383498191833496
9.777546882629395
9.69879150390625
9.780633926391602
9.51071548461914
9.061722755432129
9.48798942565918
9.310418128967285
9.461099624633789
9.586982727050781
9.698439598083496
9.61191177368164
9.574675559997559
9.672719955444336
9.789530754089355
9.563880920410156
9.866267204284668
9.70572566986084
9.757915496826172
9.654638290405273
9.77572250366211
9.794885635375977
9.725076675415039
9.698714256286621
9.541839599609375
9.275555610656738
9.548161506652832
9.761270523071289
9.816827774047852
9.544038772583008
9.614347457885742
9.601008415222168
9.384421348571777
9.76667594909668
9.583099365234375
9.656543731689453
9.660200119018555
10.031310081481934
9.611270904541016
9.554924011230469
9.796174049377441
9.436699867248535
9.616450309753418
9.565023422241211
9.59585952758789
9.626447677612305
9.802766799926758
9.740321159362793
9.648879051208496
9.40424919128418
9.850088119506836
9.32748031616211
9.597956657409668
9.801265716552734
9.60301399230957
9.264208793640137
9.607789039611816
9.759017944335938
9.208497047424316
9.813056945800781
9.701713562011719
9.825932502746582
9.717021942138672
9.957655906677246
9.385075569152832
10.006074905395508
9.505038261413574
9.621990203857422
9.559229850769043
9.656099319458008
9.370343208312988
9.891702651977539
9.239319801330566
9.826484680175781
9.680408477783203
9.713616371154785
9.355527877807617
9.367344856262207
9.738110542297363
9.790511131286621
9.799222946166992
9.656966209411621
9.596631050109863
9.687908172607422
9.662022590637207
9.493539810180664
9.669734001159668
9.555728912353516
9.654906272888184
9.868690490722656
9.791952133178711
9.588911056518555
9.643009185791016
9.22439193725586
9.73940658569336
9.193174362182617
9.716736793518066
9.553342819213867
9.3402681350708
9.857284545898438
9.596757888793945
9.574851036071777
9.6000337600708
9.860322952270508
9.651266098022461
9.75009822845459
9.72471809387207
9.847068786621094
9.70798110961914
9.740947723388672
9.210585594177246
9.672868728637695
9.671356201171875
9.55003547668457
9.7180814743042
9.606534957885742
9.56253719329834
9.720174789428711
9.765448570251465
9.825231552124023
9.67194652557373
9.706210136413574
9.810405731201172
9.411230087280273
9.771822929382324
9.594827651977539
9.558425903320312
9.501504898071289
9.68118953704834
9.342714309692383
9.573925018310547
9.612454414367676
9.407520294189453
9.628426551818848
9.806005477905273
9.612035751342773
9.659775733947754
9.603578567504883
9.516666412353516
9.57992935180664
9.602941513061523
9.618793487548828
9.510043144226074
9.677712440490723
9.673869132995605
9.40615177154541
9.79091739654541
9.616408348083496
9.725286483764648
9.436745643615723
9.438688278198242
9.76500129699707
9.520210266113281
9.582476615905762
9.757781982421875
9.843236923217773
9.331939697265625
9.727228164672852
9.620681762695312
9.820754051208496
9.630078315734863
9.696919441223145
9.797472953796387
9.736661911010742
9.69611644744873
9.630792617797852
9.662362098693848
9.567771911621094
9.617822647094727
9.701297760009766
9.552238464355469
9.461158752441406
9.568821907043457
9.536890029907227
9.446986198425293
9.560914039611816
9.520378112792969
9.607077598571777
9.622308731079102
9.70777702331543
9.625535011291504
9.690077781677246
9.6495361328125
9.71013069152832
9.525460243225098
9.500887870788574
9.73940372467041
9.760594367980957
9.73891544342041
9.773270606994629
9.333535194396973
9.682089805603027
9.76657485961914
9.442733764648438
9.666986465454102
9.744959831237793
9.679594993591309
9.672951698303223
9.760461807250977
9.679991722106934
9.317383766174316
9.674540519714355
9.322959899902344
9.466288566589355
9.889939308166504
9.849096298217773
9.715731620788574
9.511621475219727
9.653255462646484
9.869098663330078
9.85865592956543
9.76540470123291
9.687800407409668
9.528483390808105
9.763266563415527
9.814379692077637
9.385151863098145
9.822696685791016
9.548934936523438
9.851865768432617
9.812983512878418
9.651761054992676
9.745595932006836
9.732278823852539
9.607865333557129
9.822007179260254
9.652959823608398
9.630693435668945
9.618247032165527
9.698088645935059
9.571002006530762
9.739892959594727
9.839112281799316
9.763932228088379
9.81289291381836
9.410226821899414
9.641705513000488
9.486175537109375
9.646320343017578
9.635643005371094
9.722064971923828
9.939249038696289
9.70477294921875
9.690963745117188
9.545255661010742
9.714581489562988
9.937479019165039
9.813419342041016
9.637794494628906
9.671658515930176
9.785375595092773
9.772818565368652
9.665733337402344
9.743330955505371
9.788618087768555
9.662681579589844
9.607769012451172
9.415072441101074
9.680682182312012
9.553237915039062
9.778036117553711
9.839705467224121
9.76005744934082
9.768308639526367
9.757097244262695
9.759454727172852
9.60905647277832
9.695987701416016
9.670912742614746
9.772124290466309
9.550917625427246
9.313105583190918
9.700907707214355
9.789889335632324
9.750603675842285
9.793128967285156
9.485893249511719
9.480414390563965
9.769707679748535
9.776250839233398
9.702302932739258
9.488105773925781
9.693070411682129
9.782054901123047
9.5643949508667
9.53413200378418
9.756654739379883
9.962458610534668
9.3164644241333
9.62767219543457
9.692329406738281
9.588502883911133
9.825187683105469
9.720826148986816
9.596818923950195
9.732017517089844
9.670767784118652
9.699614524841309
9.741259574890137
9.620811462402344
9.532955169677734
9.855608940124512
9.820669174194336
9.746136665344238
9.51089859008789
9.723042488098145
9.737234115600586
9.47148323059082
9.752193450927734
9.490498542785645
9.784637451171875
9.373998641967773
9.460044860839844
9.614622116088867
9.707720756530762
9.467751502990723
9.54395866394043
9.652597427368164
9.638014793395996
9.621760368347168
9.588747024536133
9.638303756713867
9.663552284240723
9.580221176147461
9.61275577545166
9.708047866821289
9.576543807983398
9.704666137695312
9.526998519897461
9.6796875
9.707063674926758
9.659622192382812
9.641741752624512
9.813042640686035
9.703744888305664
9.155559539794922
9.74112319946289
9.796674728393555
9.535204887390137
9.83006477355957
9.620538711547852
9.606792449951172
9.620193481445312
9.616499900817871
9.767536163330078
9.608071327209473
9.45349407196045
9.569568634033203
9.580723762512207
9.647287368774414
9.695223808288574
9.672318458557129
9.597831726074219
9.682032585144043
9.457472801208496
9.357831954956055
9.61587142944336
9.734975814819336
9.574641227722168
9.473638534545898
9.660015106201172
9.533707618713379
9.577797889709473
9.406928062438965
9.840617179870605
9.570608139038086
9.652508735656738
9.518999099731445
9.555906295776367
9.737733840942383
9.624787330627441
9.785087585449219
9.464994430541992
9.64296817779541
9.676026344299316
9.67243480682373
9.4332914352417
9.732784271240234
9.595006942749023
9.773164749145508
9.869915008544922
9.709881782531738
9.758809089660645
9.765998840332031
9.802597999572754
9.269721984863281
9.639568328857422
9.362748146057129
9.375024795532227
9.728592872619629
9.445756912231445
9.624693870544434
9.435214042663574
9.58096694946289
9.759238243103027
9.736202239990234
9.56602954864502
9.83272647857666
9.299269676208496
9.647647857666016
9.628957748413086
9.497611045837402
9.653453826904297
9.694255828857422
9.732030868530273
9.85848331451416
9.623015403747559
9.615668296813965
9.506887435913086
9.638845443725586
9.628271102905273
9.701430320739746
9.855472564697266
9.495736122131348
9.599188804626465
9.684713363647461
9.676548957824707
9.150075912475586
9.725369453430176
9.7150297164917
9.68270492553711
9.313231468200684
9.635891914367676
9.870078086853027
9.431167602539062
9.564882278442383
9.654871940612793
9.829755783081055
9.611732482910156
9.66482925415039
9.593316078186035
9.486333847045898
9.60528564453125
9.50328254699707
9.628089904785156
9.754009246826172
9.691936492919922
9.70287036895752
9.700318336486816
9.592663764953613
9.525373458862305
9.48753833770752
9.6446533203125
9.41539192199707
9.85339641571045
9.649676322937012
9.764602661132812
9.592961311340332
9.464324951171875
9.557955741882324
9.77178955078125
9.608402252197266
9.685060501098633
9.691873550415039
9.566514015197754
9.830161094665527
9.930281639099121
9.7566556930542
9.623273849487305
9.681236267089844
9.681498527526855
9.608789443969727
9.803645133972168
9.371049880981445
9.662541389465332
9.601953506469727
9.721061706542969
9.77090835571289
9.869009017944336
9.697615623474121
9.457216262817383
9.779974937438965
9.504194259643555
9.780572891235352
9.762372970581055
9.639328002929688
9.62047290802002
9.619738578796387
9.617400169372559
9.609079360961914
9.67149829864502
9.552572250366211
9.331831932067871
9.59539794921875
9.573923110961914
9.537187576293945
9.487604141235352
9.798202514648438
9.466775894165039
9.63273811340332
9.59725570678711
9.538772583007812
9.50916862487793
9.777730941772461
9.598506927490234
9.706197738647461
9.70523452758789
9.736462593078613
9.42956256866455
9.834181785583496
9.392069816589355
9.683584213256836
9.672440528869629
9.627938270568848
9.723614692687988
9.358572959899902
9.6216459274292
9.496106147766113
9.622718811035156
9.823432922363281
9.256211280822754
9.710262298583984
9.637017250061035
9.433696746826172
9.71947956085205
9.570940017700195
9.450679779052734
9.529674530029297
9.745198249816895
9.711597442626953
9.703835487365723
9.533524513244629
9.636138916015625
9.809739112854004
9.666025161743164
9.708001136779785
9.626058578491211
9.616302490234375
9.749120712280273
9.7101469039917
9.540738105773926
9.660431861877441
9.508633613586426
9.74075984954834
9.477179527282715
9.660438537597656
9.567669868469238
9.693586349487305
9.696520805358887
9.72563362121582
9.692192077636719
9.786646842956543
9.610156059265137
9.759751319885254
9.671320915222168
9.842681884765625
9.616305351257324
9.612253189086914
9.740188598632812
9.502896308898926
9.411176681518555
9.837902069091797
9.704632759094238
9.782564163208008
9.629953384399414
9.84965705871582
9.699677467346191
9.706355094909668
9.600067138671875
9.317535400390625
9.154828071594238
9.358614921569824
9.619495391845703
9.733597755432129
9.774713516235352
9.928558349609375
9.45254898071289
9.693819046020508
9.717192649841309
9.458117485046387
9.781094551086426
9.612255096435547
9.683338165283203
9.570731163024902
9.74757194519043
9.376733779907227
9.681377410888672
9.607099533081055
9.737257957458496
9.582223892211914
9.768098831176758
9.509952545166016
9.52449893951416
9.63465690612793
9.62586784362793
9.479293823242188
9.695062637329102
9.668217658996582
9.604073524475098
9.601638793945312
9.454216003417969
9.535140991210938
9.711254119873047
9.725445747375488
9.486477851867676
9.60783576965332
9.701220512390137
9.632179260253906
9.643017768859863
9.32568359375
9.570331573486328
9.432699203491211
9.4843111038208
9.706016540527344
9.745943069458008
9.474508285522461
9.759552001953125
9.726012229919434
9.625651359558105
9.469404220581055
9.80428695678711
9.682409286499023
9.833450317382812
9.705204963684082
9.580404281616211
9.910395622253418
9.487144470214844
9.632657051086426
9.864405632019043
9.726426124572754
9.774138450622559
9.74238395690918
9.944844245910645
9.733880043029785
9.690683364868164
9.5371675491333
9.831450462341309
9.670206069946289
9.476020812988281
9.700891494750977
9.721148490905762
9.57474136352539
9.768695831298828
9.688026428222656
9.69269847869873
9.94183349609375
9.698102951049805
9.664024353027344
9.579047203063965
9.704227447509766
9.663774490356445
9.75484848022461
9.6014986038208
9.613349914550781
9.81751823425293
9.671700477600098
9.369142532348633
9.742074966430664
9.699749946594238
9.64100456237793
9.642400741577148
9.821035385131836
9.63901424407959
9.442493438720703
9.69882869720459
9.729096412658691
9.742395401000977
9.663825035095215
9.686773300170898
9.545875549316406
9.757375717163086
9.795397758483887
9.773395538330078
9.561409950256348
9.516791343688965
9.790761947631836
9.769582748413086
9.389427185058594
9.396829605102539
9.626962661743164
9.691167831420898
9.57316780090332
9.710886001586914
9.642820358276367
9.713275909423828
9.677042007446289
9.693557739257812
9.63419246673584
9.651927947998047
9.775232315063477
9.80204963684082
9.656368255615234
9.728480339050293
9.64150619506836
9.89755630493164
9.760810852050781
9.666728973388672
9.679685592651367
9.749458312988281
9.41135025024414
9.728513717651367
9.752079010009766
9.7704439163208
9.61903190612793
9.948505401611328
9.47517204284668
9.807111740112305
9.874466896057129
9.589873313903809
9.49116039276123
9.574389457702637
9.763642311096191
9.862234115600586
9.711897850036621
9.787452697753906
10.012513160705566
9.815938949584961
9.442686080932617
9.809121131896973
9.686219215393066
9.805964469909668
9.55727481842041
9.738763809204102
9.75106430053711
9.508650779724121
9.71648120880127
9.79223918914795
9.664267539978027
9.602581024169922
9.731446266174316
9.582695007324219
9.493792533874512
9.721708297729492
9.616496086120605
9.885933876037598
9.793801307678223
9.816279411315918
9.765701293945312
9.563100814819336
9.53524398803711
9.750194549560547
9.438858985900879
9.312500953674316
9.692924499511719
9.463865280151367
9.754444122314453
9.741747856140137
9.707785606384277
9.657594680786133
9.630040168762207
9.587787628173828
9.727473258972168
9.747873306274414
9.746328353881836
9.663213729858398
9.59974479675293
9.605179786682129
9.740626335144043
9.73552131652832
9.766345024108887
9.715371131896973
9.760933876037598
9.797152519226074
9.643888473510742
9.569886207580566
9.593527793884277
9.607935905456543
9.809403419494629
9.703969955444336
9.692947387695312
9.70083236694336
9.745235443115234
9.76742172241211
9.83696174621582
9.652000427246094
9.752933502197266
9.859672546386719
9.696218490600586
9.993021011352539
9.803231239318848
9.663137435913086
9.730932235717773
9.556450843811035
9.82325553894043
9.542916297912598
9.597765922546387
9.79635238647461
9.573070526123047
9.5295991897583
9.800824165344238
9.65610408782959
9.688624382019043
9.596855163574219
9.687911987304688
9.805564880371094
9.650018692016602
9.691102027893066
9.646614074707031
9.72468090057373
9.71265697479248
9.759075164794922
9.713842391967773
9.411507606506348
9.297486305236816
9.625096321105957
9.618739128112793
9.787888526916504
9.721525192260742
9.778579711914062
9.614156723022461
9.538744926452637
9.764009475708008
9.798553466796875
9.559219360351562
9.647200584411621
9.557220458984375
9.727734565734863
9.452528953552246
9.627309799194336
9.5272798538208
9.695650100708008
9.644490242004395
9.728935241699219
9.754590034484863
9.864997863769531
9.732442855834961
9.466498374938965
9.834684371948242
9.435091018676758
9.746171951293945
9.804211616516113
9.82317066192627
9.883179664611816
9.826899528503418
9.774994850158691
9.691313743591309
9.85196590423584
9.706354141235352
9.691287994384766
9.75446605682373
9.923261642456055
9.760931968688965
9.630006790161133
9.830029487609863
9.564685821533203
9.619882583618164
9.456238746643066
9.449641227722168
9.601278305053711
9.709043502807617
9.770191192626953
9.732394218444824
9.952349662780762
9.503142356872559
9.589390754699707
9.652828216552734
9.762613296508789
9.395907402038574
9.633322715759277
9.820893287658691
9.57974910736084
9.53531265258789
9.692351341247559
9.566933631896973
9.93675422668457
9.929320335388184
9.492216110229492
9.565728187561035
9.703397750854492
9.822075843811035
9.718646049499512
9.665031433105469
9.605660438537598
9.562673568725586
9.766966819763184
9.693836212158203
9.736855506896973
9.439926147460938
9.54271411895752
9.672240257263184
9.7910795211792
9.619661331176758
9.741594314575195
9.645418167114258
9.756912231445312
9.724316596984863
9.62837028503418
9.710095405578613
9.81165599822998
9.74415111541748
9.526992797851562
9.665519714355469
9.585880279541016
9.799887657165527
9.715022087097168
9.55258560180664
9.708508491516113
9.409574508666992
9.814363479614258
9.71929931640625
9.613823890686035
9.70718002319336
9.628682136535645
9.582823753356934
9.513618469238281
9.77933406829834
9.493484497070312
9.696365356445312
9.491097450256348
9.29440689086914
9.622729301452637
9.821271896362305
9.70796012878418
9.682397842407227
9.943784713745117
9.605722427368164
9.729819297790527
9.772309303283691
9.313973426818848
9.718342781066895
9.523900032043457
9.7431640625
9.70760440826416
9.724590301513672
9.678131103515625
9.656208038330078
9.612176895141602
9.815532684326172
9.694385528564453
9.435473442077637
9.431562423706055
9.660080909729004
9.37685775756836
9.661568641662598
9.663512229919434
9.692944526672363
9.758932113647461
9.791088104248047
9.805858612060547
9.61622142791748
9.762717247009277
9.762999534606934
9.917316436767578
9.793098449707031
9.689653396606445
9.712629318237305
9.744138717651367
9.786731719970703
9.566250801086426
9.481639862060547
9.562700271606445
9.819605827331543
9.28385066986084
9.707359313964844
9.62673568725586
9.594863891601562
9.594539642333984
9.526483535766602
9.545316696166992
9.588788986206055
9.782158851623535
9.684530258178711
9.732665061950684
9.390290260314941
9.453119277954102
9.616964340209961
9.342222213745117
9.478346824645996
9.733654022216797
9.731948852539062
9.807371139526367
9.719429969787598
9.640076637268066
9.748376846313477
9.689538955688477
9.548107147216797
9.59666919708252
9.424773216247559
9.508057594299316
9.451025009155273
9.636990547180176
9.87752628326416
9.49061107635498
9.785017013549805
9.633511543273926
9.575291633605957
9.700056076049805
9.564705848693848
9.790410041809082
9.639532089233398
9.72818374633789
9.578139305114746
9.36594009399414
9.72836971282959
9.457794189453125
9.524393081665039
9.699983596801758
9.5471773147583
9.774083137512207
9.682693481445312
9.669817924499512
9.649301528930664
9.634281158447266
9.432417869567871
9.715128898620605
9.709442138671875
9.388745307922363
9.664215087890625
9.905685424804688
9.621623039245605
9.436455726623535
9.661517143249512
9.775577545166016
9.550750732421875
9.64377498626709
9.767202377319336
9.61490535736084
9.720599174499512
9.570741653442383
9.748908996582031
9.388154983520508
9.34676456451416
9.642304420471191
9.602665901184082
9.64463996887207
9.58631706237793
9.830310821533203
9.8228178024292
9.477310180664062
9.612775802612305
9.67611026763916
9.67052173614502
9.655925750732422
9.548274040222168
9.613058090209961
9.658388137817383
9.762731552124023
9.69656753540039
9.764060974121094
9.63825798034668
9.419127464294434
9.699377059936523
9.606910705566406
9.756741523742676
9.720382690429688
9.484701156616211
9.599044799804688
9.852197647094727
9.672149658203125
9.761083602905273
9.688667297363281
9.430816650390625
9.569191932678223
9.556867599487305
9.723926544189453
9.55668830871582
9.496908187866211
9.729423522949219
9.735816955566406
9.759370803833008
9.754461288452148
9.637289047241211
9.847126007080078
9.594916343688965
9.849465370178223
9.620438575744629
9.739388465881348
9.410886764526367
9.723817825317383
9.548859596252441
9.857206344604492
9.543952941894531
9.64519214630127
9.602741241455078
9.81619644165039
9.61612319946289
9.486892700195312
9.590780258178711
9.833834648132324
9.911580085754395
9.72038459777832
9.69161319732666
9.681524276733398
9.534331321716309
9.49023151397705
9.829595565795898
9.62884521484375
9.804685592651367
9.601555824279785
9.758818626403809
9.819120407104492
9.613146781921387
9.664944648742676
9.790258407592773
9.715898513793945
9.543832778930664
9.897810935974121
9.642841339111328
9.72662353515625
9.71363639831543
9.645733833312988
9.77736759185791
9.752737045288086
9.640453338623047
9.390384674072266
9.709559440612793
9.793668746948242
9.775595664978027
9.761847496032715
9.75135612487793
9.731308937072754
9.69780158996582
9.45407772064209
9.728034019470215
9.818917274475098
9.661741256713867
9.6692533493042
9.68952465057373
9.712897300720215
9.6426420211792
9.644670486450195
9.74223804473877
9.40710163116455
9.507049560546875
9.680464744567871
9.377861022949219
9.665436744689941
9.65971565246582
9.411920547485352
9.82796573638916
9.776281356811523
9.733707427978516
9.761524200439453
9.625186920166016
9.818204879760742
9.821385383605957
9.690372467041016
9.663873672485352
9.838083267211914
9.72132396697998
9.919492721557617
9.906976699829102
9.791783332824707
9.762676239013672
9.792339324951172
9.805607795715332
9.7648286819458
9.788640022277832
9.7008056640625
9.790975570678711
9.777420043945312
9.583213806152344
9.649164199829102
9.74273681640625
9.627090454101562
9.770216941833496
9.689311981201172
9.744848251342773
9.55882453918457
9.61190128326416
9.567366600036621
9.578119277954102
9.763240814208984
9.788288116455078
9.701560020446777
9.542608261108398
9.856268882751465
9.579895973205566
9.830766677856445
9.806727409362793
9.623821258544922
9.715660095214844
9.719813346862793
9.72003173828125
9.542952537536621
9.666380882263184
9.601774215698242
9.715478897094727
9.671416282653809
9.442168235778809
9.830726623535156
9.55616569519043
9.618693351745605
9.620349884033203
9.700478553771973
9.830924987792969
9.620189666748047
9.644231796264648
9.390379905700684
9.489874839782715
9.74123764038086
9.696441650390625
9.526217460632324
9.68325138092041
9.787599563598633
9.573159217834473
9.73471450805664
9.423989295959473
9.734066009521484
9.665610313415527
9.664161682128906
9.674677848815918
9.765679359436035
9.575489044189453
9.486236572265625
9.432561874389648
9.58807373046875
9.68102741241455
9.639730453491211
9.83554744720459
9.736776351928711
9.644067764282227
9.748178482055664
9.613218307495117
9.52037239074707
9.638825416564941
9.646653175354004
9.502851486206055
9.565000534057617
9.7592134475708
9.778178215026855
9.732956886291504
9.52385425567627
9.616086959838867
9.773841857910156
9.71341323852539
9.644671440124512
9.706628799438477
9.658174514770508
9.710479736328125
9.522552490234375
9.53048038482666
9.481269836425781
9.657661437988281
9.450878143310547
9.703079223632812
9.727307319641113
9.789711952209473
9.678166389465332
9.597445487976074
9.534948348999023
9.382349014282227
9.601913452148438
9.553685188293457
9.821761131286621
9.636102676391602
9.639793395996094
9.796733856201172
9.69147777557373
9.671470642089844
9.697093963623047
9.717867851257324
9.71286392211914
9.68091869354248
9.638315200805664
9.578064918518066
9.593550682067871
9.562906265258789
9.620315551757812
9.583125114440918
9.646210670471191
9.687376022338867
9.603632926940918
9.92507266998291
9.399867057800293
9.754863739013672
9.784483909606934
9.463637351989746
9.598047256469727
9.67594051361084
9.488195419311523
9.610344886779785
9.62783145904541
9.312712669372559
9.480691909790039
9.553295135498047
9.511565208435059
9.7119722366333
9.664033889770508
9.729011535644531
9.615312576293945
9.680935859680176
9.555412292480469
9.610727310180664
9.575684547424316
9.57620620727539
9.514747619628906
9.921521186828613
9.798147201538086
9.628560066223145
9.86235523223877
9.575662612915039
9.655111312866211
9.774605751037598
9.666046142578125
9.670129776000977
9.427411079406738
9.762150764465332
9.689229965209961
9.586376190185547
9.68071460723877
9.460219383239746
9.578158378601074
9.546095848083496
9.6043701171875
9.601486206054688
9.735504150390625
9.636880874633789
9.780306816101074
9.664103507995605
9.507763862609863
9.688511848449707
9.610260963439941
9.54419994354248
9.681987762451172
9.698472023010254
9.575559616088867
9.623751640319824
9.732791900634766
9.906575202941895
9.52880859375
9.679706573486328
9.607112884521484
9.549975395202637
9.770092964172363
9.553574562072754
9.827818870544434
9.504570960998535
9.70798397064209
9.757196426391602
9.52341079711914
9.696638107299805
9.4624605178833
9.771491050720215
9.621634483337402
9.822563171386719
9.412964820861816
9.639098167419434
9.62582015991211
9.685490608215332
9.743698120117188
9.330636978149414
9.535778045654297
9.606026649475098
9.740362167358398
9.641276359558105
9.562036514282227
9.718260765075684
9.506380081176758
9.684247970581055
9.722744941711426
9.59434986114502
9.56513500213623
9.758583068847656
9.62876033782959
9.786250114440918
9.773272514343262
9.795757293701172
9.799469947814941
9.761337280273438
9.685079574584961
9.682785034179688
9.803163528442383
9.895570755004883
9.506982803344727
9.637487411499023
9.637456893920898
9.703518867492676
9.626154899597168
9.767925262451172
9.652006149291992
9.411385536193848
9.730974197387695
9.709283828735352
9.504205703735352
9.825538635253906
9.675280570983887
9.708702087402344
9.578879356384277
9.809099197387695
9.494528770446777
9.644624710083008
9.531961441040039
9.649409294128418
9.817963600158691
9.572470664978027
9.371889114379883
9.68225383758545
9.698951721191406
9.521902084350586
9.581453323364258
9.676032066345215
9.609835624694824
9.675359725952148
9.573981285095215
9.413597106933594
9.800683975219727
9.599142074584961
9.634811401367188
9.54605484008789
9.636308670043945
9.624205589294434
9.792423248291016
9.511006355285645
9.56483268737793
9.775758743286133
9.420289039611816
9.516341209411621
9.926197052001953
9.536253929138184
9.782788276672363
9.832232475280762
9.677699089050293
9.621532440185547
9.703341484069824
9.77588176727295
9.751864433288574
9.793649673461914
9.605230331420898
9.705129623413086
9.708202362060547
9.565972328186035
9.740805625915527
9.710517883300781
9.725790023803711
9.560860633850098
9.781425476074219
9.607527732849121
9.54270076751709
9.734556198120117
9.627304077148438
9.610605239868164
9.693032264709473
9.686836242675781
9.911684036254883
9.620874404907227
9.839598655700684
9.639936447143555
9.632654190063477
9.68446159362793
9.838594436645508
9.516165733337402
9.67546272277832
9.597112655639648
9.866400718688965
9.429329872131348
9.756315231323242
9.789061546325684
9.683107376098633
9.728962898254395
9.512277603149414
9.660863876342773
9.904796600341797
9.650437355041504
9.594380378723145
9.694121360778809
9.713836669921875
9.636454582214355
9.485702514648438
9.616186141967773
9.424657821655273
9.659627914428711
9.697981834411621
9.566408157348633
9.663372039794922
9.58760929107666
9.818167686462402
9.794894218444824
9.743985176086426
9.749260902404785
9.7168607711792
9.69517993927002
9.718804359436035
9.697108268737793
9.754627227783203
9.541960716247559
9.7401704788208
9.548871040344238
9.484731674194336
9.44457721710205
9.808813095092773
9.758702278137207
9.436453819274902
9.591493606567383
9.609113693237305
9.524290084838867
9.593266487121582
9.631959915161133
9.838164329528809
9.654187202453613
9.77541732788086
9.733160018920898
9.596695899963379
9.564350128173828
9.796757698059082
9.711063385009766
9.599599838256836
9.69852066040039
9.782256126403809
9.815303802490234
9.60354995727539
9.931529998779297
9.480278968811035
9.535482406616211
9.73251724243164
9.72916030883789
9.718149185180664
9.69454288482666
9.673786163330078
9.707959175109863
9.675893783569336
9.708927154541016
9.766301155090332
9.869892120361328
9.64368724822998
9.819554328918457
9.75452995300293
9.738401412963867
9.755881309509277
9.653182983398438
9.702025413513184
9.650671005249023
9.956449508666992
9.619475364685059
9.589774131774902
9.733583450317383
9.534984588623047
9.749175071716309
9.792457580566406
9.741703987121582
9.601404190063477
9.824585914611816
9.797118186950684
9.652152061462402
9.463078498840332
9.595236778259277
9.86097526550293
9.656208992004395
9.489653587341309
9.744447708129883
9.758182525634766
9.717628479003906
9.695760726928711
9.690337181091309
9.791695594787598
9.745891571044922
9.78476619720459
9.745851516723633
9.580172538757324
9.739744186401367
9.675924301147461
9.48101806640625
9.814342498779297
9.686820983886719
9.647018432617188
9.780603408813477
9.646159172058105
9.615158081054688
9.648056983947754
9.749055862426758
9.772330284118652
9.868407249450684
9.597685813903809
9.796459197998047
9.745140075683594
10.132280349731445
9.689987182617188
9.545347213745117
9.730805397033691
9.72399616241455
9.507720947265625
9.636699676513672
9.729907035827637
9.51109790802002
9.712420463562012
9.67646312713623
9.629491806030273
9.734637260437012
9.629241943359375
9.625651359558105
9.877490043640137
9.374373435974121
9.801660537719727
9.689597129821777
9.7671537399292
9.712358474731445
9.786261558532715
9.649893760681152
9.655613899230957
9.708837509155273
10.039258003234863
9.762532234191895
9.7125825881958
9.747040748596191
9.615175247192383
9.64097785949707
9.760900497436523
9.863210678100586
9.516440391540527
9.767461776733398
9.744664192199707
9.786405563354492
9.797325134277344
9.608403205871582
9.684240341186523
9.579276084899902
9.755608558654785
9.743927001953125
9.68575668334961
9.768375396728516
9.687405586242676
9.721576690673828
9.692158699035645
9.675826072692871
9.722919464111328
9.871492385864258
9.543868064880371
9.593215942382812
9.549140930175781
9.632588386535645
9.7323637008667
9.697297096252441
9.706884384155273
9.601234436035156
9.755165100097656
9.858502388000488
9.803154945373535
9.658951759338379
9.78691577911377
9.79537582397461
9.715250968933105
9.648171424865723
9.64387321472168
9.783427238464355
9.751408576965332
9.66940975189209
9.369402885437012
9.684828758239746
9.619626998901367
9.597222328186035
9.949970245361328
9.564766883850098
9.478320121765137
9.651004791259766
9.718942642211914
9.590675354003906
9.661666870117188
9.679956436157227
9.72070598602295
9.556408882141113
9.609538078308105
9.657174110412598
9.83978271484375
9.787396430969238
9.655021667480469
9.679075241088867
9.474249839782715
9.74052619934082
9.511255264282227
9.637882232666016
9.815464973449707
9.633269309997559
9.639510154724121
9.621520042419434
9.78442668914795
9.716028213500977
9.791326522827148
9.746458053588867
9.492304801940918
9.797747611999512
9.549177169799805
9.70837688446045
9.465874671936035
9.67837142944336
9.707269668579102
9.570121765136719
9.911256790161133
9.753108024597168
9.714225769042969
9.590761184692383
9.788727760314941
9.682296752929688
9.72297191619873
9.607922554016113
9.490368843078613
9.648704528808594
9.766070365905762
9.601573944091797
9.706305503845215
9.56037425994873
9.594388008117676
9.601283073425293
9.634101867675781
9.529851913452148
9.400799751281738
9.627150535583496
9.713995933532715
9.710432052612305
9.512678146362305
9.659635543823242
9.790178298950195
9.615665435791016
9.761980056762695
9.557860374450684
9.58530330657959
9.71325969696045
9.560909271240234
9.539721488952637
9.639851570129395
9.740848541259766
9.684976577758789
9.50462532043457
9.751641273498535
9.73244857788086
9.736451148986816
9.605950355529785
9.76590633392334
9.62533950805664
9.839816093444824
9.72793960571289
9.630836486816406
9.44985294342041
9.623291969299316
9.323439598083496
9.759781837463379
9.63758659362793
9.671088218688965
9.705147743225098
9.78286361694336
9.442103385925293
9.701067924499512
9.872286796569824
9.670686721801758
9.42546272277832
9.68408203125
9.599109649658203
9.749321937561035
9.759742736816406
9.853677749633789
9.656996726989746
9.629498481750488
9.788004875183105
9.613375663757324
9.617843627929688
9.711605072021484
9.667988777160645
9.784568786621094
9.709328651428223
9.588239669799805
9.892522811889648
9.662636756896973
9.560235023498535
9.727845191955566
9.743070602416992
9.646349906921387
9.788633346557617
9.626289367675781
9.659600257873535
10.062812805175781
9.542835235595703
9.832071304321289
9.679679870605469
9.8060884475708
9.745709419250488
9.693507194519043
9.567005157470703
9.806253433227539
9.823814392089844
9.729100227355957
9.71520709991455
9.81247615814209
9.5410737991333
9.742594718933105
9.701539993286133
9.697320938110352
9.70745849609375
9.776409149169922
9.738794326782227
9.743234634399414
9.535086631774902
9.644580841064453
9.716742515563965
9.665252685546875
9.712309837341309
9.811380386352539
9.652810096740723
9.652530670166016
9.664044380187988
9.587735176086426
9.635150909423828
9.775228500366211
9.629103660583496
9.604218482971191
9.73949909210205
9.70934009552002
9.576684951782227
9.690570831298828
9.636419296264648
9.678821563720703
9.614664077758789
9.589412689208984
9.66723346710205
9.719293594360352
9.638564109802246
9.812154769897461
9.618653297424316
9.691804885864258
9.629788398742676
9.651250839233398
9.737800598144531
9.765695571899414
9.669281959533691
9.429061889648438
9.64525032043457
9.688941955566406
9.687170028686523
10.005859375
9.603842735290527
9.694132804870605
9.75753402709961
9.811430931091309
9.741024017333984
9.735538482666016
9.69010066986084
9.636706352233887
9.755800247192383
9.5532808303833
9.582454681396484
9.615706443786621
9.794157981872559
9.63660717010498
9.858325004577637
9.548138618469238
9.815533638000488
9.657857894897461
9.586456298828125
9.725984573364258
9.681558609008789
9.50682258605957
9.906778335571289
9.952973365783691
9.587462425231934
9.786783218383789
9.70743179321289
9.642799377441406
9.942513465881348
9.63360595703125
9.819756507873535
9.754745483398438
9.7086763381958
9.675045013427734
9.633292198181152
9.813849449157715
9.678155899047852
9.608077049255371
9.859190940856934
9.816035270690918
9.553827285766602
9.669574737548828
9.503994941711426
9.568114280700684
9.434635162353516
9.891012191772461
9.465364456176758
9.687190055847168
9.605572700500488
9.657525062561035
9.423921585083008
9.699567794799805
9.705876350402832
9.598870277404785
9.336193084716797
9.668634414672852
9.497647285461426
9.661678314208984
9.565364837646484
9.824396133422852
9.570514678955078
9.683873176574707
9.682552337646484
9.666592597961426
9.741805076599121
9.506839752197266
9.641530990600586
9.507128715515137
9.562213897705078
9.760004043579102
9.637287139892578
9.684660911560059
9.608047485351562
9.71915340423584
9.667695999145508
9.780939102172852
9.566975593566895
9.608872413635254
9.713118553161621
9.589287757873535
9.67499828338623
9.817736625671387
9.650101661682129
9.506707191467285
9.453168869018555
9.642159461975098
9.531352043151855
9.589776039123535
9.67660903930664
9.493127822875977
9.851676940917969
9.66619873046875
9.71236801147461
9.784711837768555
9.704760551452637
9.734013557434082
9.549762725830078
9.71281623840332
9.671396255493164
9.663334846496582
9.748014450073242
9.760393142700195
9.790125846862793
9.653433799743652
9.579833984375
9.743719100952148
9.623249053955078
9.715181350708008
9.649975776672363
9.571742057800293
9.550013542175293
9.810473442077637
9.630807876586914
9.697074890136719
9.832225799560547
9.465612411499023
9.922371864318848
9.797926902770996
9.693469047546387
9.654630661010742
9.634553909301758
9.665144920349121
9.952113151550293
9.847990036010742
9.63786792755127
9.652898788452148
9.586967468261719
9.734437942504883
9.556509971618652
9.546826362609863
9.649494171142578
9.582314491271973
9.570667266845703
9.773268699645996
9.726842880249023
9.772932052612305
9.786100387573242
9.670530319213867
9.588168144226074
9.646373748779297
9.613800048828125
9.646102905273438
9.883301734924316
9.585897445678711
9.778240203857422
9.73822021484375
9.640861511230469
9.542688369750977
9.872207641601562
9.582002639770508
9.698850631713867
9.623470306396484
9.566307067871094
9.70120620727539
9.747611999511719
9.766371726989746
9.600611686706543
9.737051963806152
9.713448524475098
9.678149223327637
9.615328788757324
9.831448554992676
9.724103927612305
9.649749755859375
9.626712799072266
9.690739631652832
9.597567558288574
9.51646900177002
9.725476264953613
9.741251945495605
9.711514472961426
9.79355239868164
9.59557819366455
9.314918518066406
9.741649627685547
9.694634437561035
9.561041831970215
9.729552268981934
9.631818771362305
9.744145393371582
9.755827903747559
9.639819145202637
9.687674522399902
9.756559371948242
9.690994262695312
9.70869255065918
9.559656143188477
9.636369705200195
9.436537742614746
9.633183479309082
9.754441261291504
9.613860130310059
9.652080535888672
9.710711479187012
9.702184677124023
9.62069034576416
9.732704162597656
9.603692054748535
9.775094985961914
9.712246894836426
9.727607727050781
9.664379119873047
9.593490600585938
9.735575675964355
9.625343322753906
9.602588653564453
9.659276962280273
9.628307342529297
9.745295524597168
9.703825950622559
9.60982608795166
9.572601318359375
9.76542854309082
9.689647674560547
9.768892288208008
9.584649085998535
9.745936393737793
9.698868751525879
9.33530044555664
9.656688690185547
9.630156517028809
9.729714393615723
9.559333801269531
9.736233711242676
9.774188041687012
9.789047241210938
9.840473175048828
9.516443252563477
9.749137878417969
9.620498657226562
9.62904167175293
9.67098331451416
9.708965301513672
9.640002250671387
9.624092102050781
9.732715606689453
9.643575668334961
9.741708755493164
9.794903755187988
9.515996932983398
9.747535705566406
9.615976333618164
9.909981727600098
9.752108573913574
9.789253234863281
9.648526191711426
9.586722373962402
9.692034721374512
9.495172500610352
9.593827247619629
9.681565284729004
9.73428726196289
9.752894401550293
9.722006797790527
9.881489753723145
9.757745742797852
9.533910751342773
9.66901969909668
9.692525863647461
9.802160263061523
9.869010925292969
9.67457103729248
9.732043266296387
9.647765159606934
9.601451873779297
9.523333549499512
9.738558769226074
9.5363130569458
9.77029800415039
9.53307819366455
9.70899486541748
9.632953643798828
9.671656608581543
9.549253463745117
9.6967134475708
9.801794052124023
9.655219078063965
9.554181098937988
9.60748291015625
9.712982177734375
9.654208183288574
9.815683364868164
9.630071640014648
9.72165298461914
9.50068473815918
9.800873756408691
9.610404014587402
9.767892837524414
9.839399337768555
9.75191593170166
9.654851913452148
9.774698257446289
9.603534698486328
9.771417617797852
9.553632736206055
9.570748329162598
9.479246139526367
9.714527130126953
9.58305549621582
9.685314178466797
9.63612174987793
9.73558521270752
9.586113929748535
9.618852615356445
9.792941093444824
9.747081756591797
9.491814613342285
9.563575744628906
9.542634963989258
9.830377578735352
9.76206111907959
9.746413230895996
9.541177749633789
9.436260223388672
9.892120361328125
9.607437133789062
9.69778060913086
9.590940475463867
9.662050247192383
9.537992477416992
9.907011985778809
9.562516212463379
9.76676082611084
9.654314994812012
9.747268676757812
9.474786758422852
9.715426445007324
9.637201309204102
9.531632423400879
9.61368179321289
9.6447114944458
9.723288536071777
9.227272033691406
9.746356964111328
9.876176834106445
9.682846069335938
9.523914337158203
9.6786470413208
9.513221740722656
9.722716331481934
9.743255615234375
9.374155044555664
9.447295188903809
9.552640914916992
9.639630317687988
9.688807487487793
9.706048011779785
9.718070983886719
9.780025482177734
9.811140060424805
9.692028045654297
9.672384262084961
9.606143951416016
9.548428535461426
9.766841888427734
9.512372016906738
9.505326271057129
9.599806785583496
9.725192070007324
9.707534790039062
9.535419464111328
9.814831733703613
9.689767837524414
9.595972061157227
9.757040977478027
9.644421577453613
9.973581314086914
9.768365859985352
9.655050277709961
9.666470527648926
9.666828155517578
9.554765701293945
9.56136703491211
9.328238487243652
9.735946655273438
9.622724533081055
9.508416175842285
9.730009078979492
9.681561470031738
9.62072467803955
9.862447738647461
9.593840599060059
9.48512077331543
9.606561660766602
9.58477783203125
9.816932678222656
9.748504638671875
9.773102760314941
9.568658828735352
9.635818481445312
9.763008117675781
9.632423400878906
9.714715003967285
9.745789527893066
9.770995140075684
9.574962615966797
9.659256935119629
9.617026329040527
9.814798355102539
9.640942573547363
9.751789093017578
9.5482177734375
9.435310363769531
9.637598991394043
9.679145812988281
9.745450973510742
9.678496360778809
9.709123611450195
9.840782165527344
9.64017105102539
9.669576644897461
9.601085662841797
9.533994674682617
9.948983192443848
9.643340110778809
9.726104736328125
9.611305236816406
9.58169174194336
9.716471672058105
9.465232849121094
9.808866500854492
9.786751747131348
9.641900062561035
9.742034912109375
9.81425666809082
9.769886016845703
9.711225509643555
9.664061546325684
9.698470115661621
9.696134567260742
9.707573890686035
9.591217994689941
9.46506118774414
9.485527992248535
9.847658157348633
9.615941047668457
9.800138473510742
9.805658340454102
9.603920936584473
9.807367324829102
9.802101135253906
9.552730560302734
9.849693298339844
9.790207862854004
9.678328514099121
9.783900260925293
9.663421630859375
9.903000831604004
9.762565612792969
9.676285743713379
9.70101261138916
9.733052253723145
9.676994323730469
9.81728744506836
9.563169479370117
9.741090774536133
9.664498329162598
9.653564453125
9.701229095458984
9.480607032775879
9.776369094848633
9.614439964294434
9.623954772949219
9.644964218139648
9.476702690124512
9.568991661071777
9.724801063537598
9.647544860839844
9.63833999633789
9.778817176818848
9.79962158203125
9.657068252563477
9.83288860321045
9.624190330505371
9.783951759338379
9.770578384399414
9.702886581420898
9.866284370422363
9.642019271850586
9.672389030456543
9.687932968139648
9.791272163391113
9.703882217407227
9.742019653320312
9.59968376159668
9.767248153686523
9.740205764770508
9.595812797546387
9.580379486083984
9.533672332763672
9.446064949035645
9.721213340759277
9.581461906433105
9.683069229125977
9.728083610534668
9.701573371887207
9.628952026367188
9.707385063171387
9.412161827087402
9.493215560913086
9.411405563354492
9.701493263244629
9.432121276855469
9.726109504699707
9.7752685546875
9.624139785766602
9.422469139099121
9.70921802520752
9.783562660217285
9.671402931213379
9.431551933288574
9.615509033203125
9.813253402709961
9.39306640625
9.478840827941895
9.533803939819336
9.522611618041992
9.686324119567871
9.726946830749512
9.752683639526367
9.662525177001953
9.665769577026367
9.69160270690918
9.750585556030273
9.946922302246094
9.685782432556152
9.662761688232422
9.708346366882324
9.64448356628418
9.635326385498047
9.502107620239258
9.742461204528809
9.612380981445312
9.953475952148438
9.856480598449707
9.523774147033691
9.634050369262695
9.473791122436523
9.687504768371582
9.8515043258667
9.612778663635254
9.543072700500488
9.95423698425293
9.838293075561523
9.744937896728516
9.68389892578125
9.477129936218262
9.753975868225098
9.817695617675781
9.699445724487305
9.57980728149414
9.819208145141602
9.694106101989746
9.40034294128418
9.645909309387207
9.825427055358887
9.495923042297363
9.341032981872559
9.664874076843262
9.713454246520996
9.766620635986328
9.28636646270752
9.691338539123535
9.710126876831055
9.940536499023438
9.263785362243652
9.719462394714355
9.63343620300293
9.398514747619629
9.75767707824707
9.598323822021484
9.520102500915527
9.746386528015137
9.687211036682129
9.649370193481445
9.453404426574707
9.7723388671875
9.731781959533691
9.667479515075684
9.696457862854004
9.727827072143555
9.301236152648926
9.36931324005127
9.514211654663086
9.69936752319336
9.598711967468262
9.654196739196777
9.662328720092773
9.8706693649292
9.627893447875977
9.69457721710205
9.586202621459961
9.674595832824707
9.609757423400879
9.856287002563477
9.716741561889648
9.679248809814453
9.70298957824707
9.636613845825195
9.804509162902832
9.715991020202637
9.714214324951172
9.73041820526123
9.535778045654297
9.649317741394043
9.641026496887207
9.70029067993164
9.46863079071045
9.559858322143555
9.52049732208252
9.953126907348633
9.675811767578125
9.59526252746582
9.690714836120605
9.724064826965332
9.701983451843262
9.422568321228027
9.710600852966309
9.611197471618652
9.335323333740234
9.554734230041504
9.611124992370605
9.74184799194336
9.534558296203613
9.76679801940918
9.553837776184082
9.382262229919434
9.399354934692383
9.751680374145508
9.69080638885498
9.218331336975098
9.737199783325195
9.765063285827637
9.716052055358887
9.84990119934082
9.585355758666992
9.709033966064453
9.676077842712402
9.900421142578125
9.60486888885498
9.470033645629883
9.380134582519531
9.663822174072266
9.447297096252441
9.703932762145996
9.774922370910645
9.707974433898926
9.66850471496582
9.777168273925781
9.85283374786377
9.790665626525879
9.537049293518066
9.680135726928711
9.683490753173828
9.726234436035156
9.712332725524902
9.483266830444336
9.906591415405273
9.748346328735352
9.678842544555664
9.46490478515625
9.568482398986816
9.840362548828125
9.461213111877441
9.76269245147705
9.944072723388672
9.611326217651367
9.753142356872559
9.607845306396484
9.749834060668945
9.391233444213867
9.70107650756836
9.918295860290527
9.587430000305176
9.561379432678223
9.725515365600586
9.534096717834473
9.792484283447266
9.70793342590332
9.721540451049805
9.95920181274414
9.63133430480957
9.647844314575195
9.67626667022705
9.577223777770996
9.667004585266113
9.638219833374023
9.570282936096191
9.667774200439453
9.566466331481934
9.656956672668457
9.546792984008789
9.700919151306152
9.616277694702148
9.800496101379395
9.834688186645508
9.675411224365234
9.589921951293945
9.724458694458008
9.652057647705078
9.385289192199707
9.787973403930664
9.590524673461914
9.658821105957031
9.642951965332031
9.507880210876465
9.487236976623535
9.548222541809082
9.56319808959961
9.725604057312012
9.734946250915527
9.673238754272461
9.830954551696777
9.6284818649292
9.615765571594238
9.667304039001465
9.720184326171875
9.565293312072754
9.712926864624023
9.728833198547363
9.571310043334961
9.789276123046875
9.454102516174316
9.765076637268066
9.724037170410156
9.725896835327148
9.59986686706543
9.628829002380371
9.682260513305664
9.705869674682617
9.672237396240234
9.69829273223877
9.746147155761719
9.774008750915527
9.884096145629883
9.728205680847168
9.485312461853027
9.772249221801758
9.631064414978027
9.695069313049316
9.729236602783203
9.745831489562988
9.817622184753418
9.810647964477539
9.883402824401855
9.323665618896484
9.442111015319824
9.59050178527832
9.689693450927734
9.679503440856934
9.565925598144531
9.849743843078613
9.632941246032715
9.782735824584961
9.527751922607422
9.619214057922363
9.456409454345703
9.619084358215332
9.498538970947266
9.65971565246582
9.549356460571289
9.409271240234375
9.510004043579102
9.7465181350708
9.632463455200195
9.641050338745117
9.576980590820312
9.552210807800293
9.658585548400879
9.681050300598145
9.838720321655273
9.680536270141602
9.734077453613281
9.631282806396484
9.742920875549316
9.609667778015137
9.56825065612793
9.70039176940918
9.487005233764648
9.722784996032715
9.864890098571777
9.705320358276367
9.812276840209961
9.721753120422363
9.580470085144043
9.571921348571777
9.50316047668457
9.566285133361816
9.719925880432129
9.728127479553223
9.812508583068848
9.856361389160156
9.699274063110352
9.642788887023926
9.4957275390625
9.652316093444824
9.79944896697998
9.731240272521973
9.714859962463379
9.594025611877441
9.731905937194824
9.680663108825684
9.706324577331543
9.721379280090332
9.63001537322998
9.646435737609863
9.80776309967041
9.637557029724121
9.697154998779297
9.758336067199707
9.575421333312988
9.818549156188965
9.683874130249023
9.701055526733398
9.641731262207031
9.319769859313965
9.601245880126953
9.773924827575684
9.830507278442383
9.635924339294434
9.638011932373047
9.91675090789795
9.419164657592773
9.275386810302734
9.745059967041016
9.588546752929688
9.660823822021484
9.5929594039917
9.80097770690918
9.553311347961426
9.620346069335938
9.67226791381836
9.7069673538208
9.611186027526855
9.432902336120605
9.535996437072754
9.811135292053223
10.000581741333008
9.859552383422852
9.607398986816406
9.686835289001465
9.736204147338867
9.499760627746582
9.704346656799316
9.691912651062012
9.881752014160156
9.700579643249512
9.746561050415039
9.66806697845459
9.84589958190918
9.61223316192627
9.666988372802734
9.737217903137207
9.669553756713867
9.663984298706055
9.67407512664795
9.7321138381958
9.737853050231934
9.873499870300293
9.574746131896973
9.867972373962402
9.508646965026855
9.632791519165039
9.61873722076416
9.725421905517578
9.85142993927002
9.670979499816895
9.779550552368164
9.513561248779297
9.646244049072266
9.528342247009277
9.729008674621582
9.794351577758789
9.833732604980469
9.529836654663086
9.70198917388916
9.674026489257812
9.816164016723633
9.576828956604004
9.649011611938477
9.601922035217285
9.849380493164062
9.685885429382324
9.8116455078125
9.593002319335938
9.781585693359375
9.58615493774414
9.645923614501953
9.657048225402832
9.421548843383789
9.52869987487793
9.729795455932617
9.732848167419434
9.71512222290039
9.779582023620605
9.573687553405762
9.703957557678223
9.757498741149902
9.548822402954102
9.600257873535156
9.789191246032715
9.696795463562012
9.715920448303223
9.520896911621094
9.802553176879883
9.599530220031738
9.631142616271973
9.614322662353516
9.596813201904297
9.732797622680664
9.77405071258545
9.644737243652344
9.70196533203125
9.860479354858398
9.773565292358398
9.721234321594238
9.636130332946777
9.680639266967773
9.731623649597168
9.554725646972656
9.893998146057129
9.65908145904541
9.44305419921875
9.712997436523438
9.641706466674805
9.752602577209473
9.534061431884766
9.723604202270508
9.6284761428833
9.596022605895996
9.691634178161621
9.77428913116455
9.705792427062988
9.860160827636719
9.603593826293945
9.607674598693848
9.525571823120117
9.67038631439209
9.716947555541992
9.578056335449219
9.757869720458984
9.718835830688477
9.461447715759277
9.706605911254883
9.850383758544922
9.681594848632812
9.699285507202148
9.500288009643555
9.809965133666992
9.672384262084961
9.71464729309082
9.674727439880371
9.559576034545898
9.680766105651855
9.318799018859863
9.769073486328125
9.590941429138184
9.721628189086914
9.629076957702637
9.813389778137207
9.504006385803223
9.73626708984375
9.683658599853516
9.70991039276123
9.779016494750977
9.809889793395996
9.805601119995117
9.744441986083984
9.585975646972656
9.588505744934082
9.938251495361328
9.570345878601074
9.700371742248535
9.716976165771484
9.671173095703125
9.752674102783203
9.391674995422363
9.816549301147461
9.906679153442383
9.53671646118164
9.532709121704102
9.585548400878906
9.706974029541016
9.67244815826416
9.7376708984375
9.489348411560059
9.431017875671387
9.684136390686035
9.687498092651367
9.943968772888184
9.588481903076172
9.708744049072266
9.726692199707031
9.663496971130371
9.848919868469238
9.400471687316895
9.736154556274414
9.538819313049316
9.465577125549316
9.570699691772461
9.71823787689209
9.65295124053955
9.687694549560547
9.666778564453125
9.687832832336426
9.614636421203613
9.861634254455566
9.732094764709473
9.574633598327637
9.819955825805664
9.50961685180664
9.716145515441895
9.633881568908691
10.003769874572754
9.565679550170898
9.760526657104492
9.629470825195312
9.45595932006836
9.5694580078125
9.796866416931152
9.679630279541016
9.715292930603027
9.626296997070312
9.64594841003418
9.604535102844238
9.803831100463867
9.68402099609375
9.660314559936523
9.360067367553711
9.62987232208252
9.670004844665527
9.634260177612305
9.794818878173828
9.482446670532227
9.711467742919922
9.590576171875
9.70716667175293
9.827311515808105
9.574990272521973
9.61430835723877
9.531523704528809
9.50356674194336
9.761480331420898
9.554777145385742
9.781834602355957
9.672649383544922
9.635066032409668
9.9973783493042
9.68107795715332
9.696715354919434
9.509900093078613
9.731765747070312
9.719062805175781
9.689826011657715
9.783644676208496
9.759867668151855
9.678546905517578
9.703325271606445
9.660490989685059
9.697516441345215
9.6919584274292
9.415773391723633
9.595873832702637
9.580276489257812
9.720250129699707
9.692673683166504
9.700735092163086
9.69571304321289
9.736793518066406
9.769418716430664
9.516357421875
9.758646965026855
9.475339889526367
9.585549354553223
9.667563438415527
9.5989990234375
9.672317504882812
9.698291778564453
9.692902565002441
9.672347068786621
9.631585121154785
9.529932022094727
9.65742015838623
9.71219539642334
9.467735290527344
9.770280838012695
9.503788948059082
9.408753395080566
10.121237754821777
9.655341148376465
9.6185884475708
9.746309280395508
9.796564102172852
9.583446502685547
9.817865371704102
9.343146324157715
9.797327041625977
9.650362968444824
9.618512153625488
9.726743698120117
9.559221267700195
9.876973152160645
9.812968254089355
9.628626823425293
9.444190979003906
9.684672355651855
9.802875518798828
9.870136260986328
9.700047492980957
9.717775344848633
9.782282829284668
9.600953102111816
9.748045921325684
9.752518653869629
9.547042846679688
9.653447151184082
9.672675132751465
9.60176944732666
9.799030303955078
9.807635307312012
9.598236083984375
9.756397247314453
9.85500717163086
9.662595748901367
9.61172103881836
9.488266944885254
9.785372734069824
9.76949691772461
9.845340728759766
9.690457344055176
9.777665138244629
9.697426795959473
9.638467788696289
9.630346298217773
9.627472877502441
9.6063814163208
9.724937438964844
9.704449653625488
9.66062068939209
9.66190242767334
9.954551696777344
9.389352798461914
9.657818794250488
9.569265365600586
9.533357620239258
9.751646995544434
9.729116439819336
9.576233863830566
9.715202331542969
9.57629680633545
9.633049964904785
9.674182891845703
9.716475486755371
9.941385269165039
9.694389343261719
9.897125244140625
9.75839614868164
9.756255149841309
9.41646957397461
9.770245552062988
9.472972869873047
9.715868949890137
9.37319278717041
9.68646240234375
9.780447006225586
9.681367874145508
9.69497299194336
9.637821197509766
9.756957054138184
9.31771183013916
9.666348457336426
9.490276336669922
9.71214771270752
9.705954551696777
9.711597442626953
9.59732437133789
9.638731956481934
9.622922897338867
9.554085731506348
9.569453239440918
9.627164840698242
9.850881576538086
9.871949195861816
9.724169731140137
9.60687255859375
9.433154106140137
9.758070945739746
9.679779052734375
9.613300323486328
9.528349876403809
9.780827522277832
9.626375198364258
9.813201904296875
9.589261054992676
9.59825611114502
9.667122840881348
9.73519515991211
9.54870891571045
9.726479530334473
9.671798706054688
9.765993118286133
9.672722816467285
9.69376277923584
9.712569236755371
9.639493942260742
9.708318710327148
9.721809387207031
9.550619125366211
9.732877731323242
9.651717185974121
9.627155303955078
9.728466033935547
9.569032669067383
9.637895584106445
9.730094909667969
9.742349624633789
9.859338760375977
9.585342407226562
9.5997953414917
9.460715293884277
9.70837116241455
9.64161205291748
9.717851638793945
9.739934921264648
9.695608139038086
9.55377197265625
9.387137413024902
9.853432655334473
9.392561912536621
9.757373809814453
9.639266967773438
9.622611045837402
9.673967361450195
9.814541816711426
9.785040855407715
9.483034133911133
9.592963218688965
9.597099304199219
9.937726020812988
9.64012622833252
9.726241111755371
9.628753662109375
9.60616683959961
9.570244789123535
9.685811996459961
9.586453437805176
9.741095542907715
9.540271759033203
9.467672348022461
9.552977561950684
9.590582847595215
9.602593421936035
9.788839340209961
9.589509010314941
9.694612503051758
9.713122367858887
9.453784942626953
9.505678176879883
9.701008796691895
9.546960830688477
9.729673385620117
9.536214828491211
9.612824440002441
9.81336784362793
9.669866561889648
9.53671932220459
9.692769050598145
9.785343170166016
9.740964889526367
9.772262573242188
9.560012817382812
9.670289993286133
9.733255386352539
9.472044944763184
9.59225845336914
9.740785598754883
9.715374946594238
9.826990127563477
9.680997848510742
9.836441040039062
9.709941864013672
9.691442489624023
9.551010131835938
9.377684593200684
9.508365631103516
9.666142463684082
9.62755298614502
9.693643569946289
9.838274955749512
9.561338424682617
9.719202995300293
9.67020034790039
9.671330451965332
9.593301773071289
9.441787719726562
9.800707817077637
9.667861938476562
9.695639610290527
9.780158996582031
9.370428085327148
9.617356300354004
9.727091789245605
9.619954109191895
9.520557403564453
9.653132438659668
9.891495704650879
9.615152359008789
9.930797576904297
9.562813758850098
9.769865989685059
9.983527183532715
9.736716270446777
9.597793579101562
9.755553245544434
9.719297409057617
9.644776344299316
9.86669635772705
9.617124557495117
9.679771423339844
9.524184226989746
9.675149917602539
9.777305603027344
9.572370529174805
9.622795104980469
9.46120834350586
9.760027885437012
9.572486877441406
9.626362800598145
9.627158164978027
9.80764102935791
9.728143692016602
9.546516418457031
9.644393920898438
9.739139556884766
9.570942878723145
9.657988548278809
9.969887733459473
9.660454750061035
9.544931411743164
9.720114707946777
9.670413970947266
9.749073028564453
9.806562423706055
9.815448760986328
9.672348022460938
9.461996078491211
9.831738471984863
9.470062255859375
9.607654571533203
9.576595306396484
9.756498336791992
9.62104606628418
9.765620231628418
9.681536674499512
9.833166122436523
9.511245727539062
9.6547212600708
9.66610336303711
9.589597702026367
9.683334350585938
9.753918647766113
9.658802032470703
9.63392448425293
9.725525856018066
9.771734237670898
9.51799488067627
9.645398139953613
9.727635383605957
9.603209495544434
9.702909469604492
9.700632095336914
9.557999610900879
9.799358367919922
9.807043075561523
9.671623229980469
9.742757797241211
9.552489280700684
9.678752899169922
9.619704246520996
9.75986099243164
9.623867988586426
9.633056640625
9.763567924499512
9.78943157196045
9.777138710021973
9.765992164611816
9.770391464233398
9.76023006439209
9.569295883178711
9.427143096923828
9.754374504089355
9.693659782409668
9.706138610839844
9.809924125671387
9.679645538330078
9.61616039276123
9.912464141845703
9.502849578857422
9.739250183105469
9.662013053894043
9.687809944152832
9.776409149169922
9.50001335144043
9.674816131591797
9.621899604797363
9.760013580322266
9.617874145507812
9.73708724975586
9.813365936279297
9.668103218078613
9.720491409301758
9.777040481567383
9.515881538391113
9.741247177124023
9.70716667175293
9.573454856872559
9.844341278076172
9.742767333984375
9.557771682739258
9.516443252563477
9.509855270385742
9.946003913879395
9.665840148925781
9.606362342834473
9.729710578918457
9.436677932739258
9.729084968566895
9.629270553588867
9.827890396118164
9.6998291015625
9.812362670898438
9.651263236999512
9.627983093261719
9.564532279968262
9.590470314025879
9.674407005310059
9.682869911193848
9.811349868774414
9.41933536529541
9.659587860107422
9.983383178710938
9.708531379699707
9.688921928405762
9.60053825378418
9.758016586303711
9.735791206359863
9.608512878417969
9.616722106933594
9.623800277709961
9.727531433105469
9.649896621704102
9.799875259399414
9.65427017211914
9.790651321411133
9.611736297607422
9.654105186462402
9.676939010620117
9.673188209533691
9.67575740814209
9.724727630615234
9.427876472473145
9.482421875
9.635435104370117
9.618391036987305
9.499388694763184
9.600105285644531
9.36019515991211
9.647207260131836
9.985858917236328
9.557574272155762
9.74112319946289
9.742313385009766
9.619272232055664
9.782617568969727
9.613980293273926
9.775915145874023
9.686491966247559
9.836995124816895
9.653291702270508
9.6475830078125
9.68178939819336
9.641868591308594
9.657781600952148
9.641033172607422
9.595011711120605
9.647238731384277
9.730377197265625
9.696778297424316
9.555950164794922
9.701602935791016
9.696023941040039
9.791543960571289
9.655896186828613
9.79201602935791
9.907584190368652
9.575233459472656
9.741500854492188
9.55563735961914
9.778131484985352
9.697332382202148
9.97861099243164
9.613452911376953
9.644632339477539
9.550143241882324
9.632579803466797
9.705453872680664
9.725027084350586
9.719910621643066
9.473105430603027
9.665043830871582
9.738751411437988
9.757862091064453
9.756085395812988
9.84670639038086
9.651679992675781
9.613594055175781
9.68843936920166
9.727113723754883
9.836604118347168
9.779358863830566
9.615402221679688
9.667325973510742
9.639991760253906
9.726225852966309
9.663796424865723
9.425546646118164
9.56656265258789
9.52192211151123
9.542642593383789
9.802639961242676
9.549897193908691
9.872374534606934
9.721814155578613
9.706311225891113
9.558964729309082
9.535347938537598
9.693990707397461
9.725614547729492
9.673418045043945
9.55832576751709
9.831762313842773
9.75180435180664
9.652112007141113
9.53283977508545
9.624613761901855
9.58446216583252
9.497929573059082
9.527656555175781
9.722561836242676
9.651819229125977
9.627786636352539
9.770463943481445
9.686767578125
9.540820121765137
9.503676414489746
9.711688995361328
9.657724380493164
9.83661937713623
9.733184814453125
9.77746295928955
9.473991394042969
9.589803695678711
9.840956687927246
9.808197975158691
9.799773216247559
9.582828521728516
9.619552612304688
9.608732223510742
9.689096450805664
9.62462329864502
9.618034362792969
9.727371215820312
9.863432884216309
9.727458953857422
9.6504487991333
9.630431175231934
9.667271614074707
9.79043197631836
9.734935760498047
9.736979484558105
9.602499961853027
9.708230972290039
9.800999641418457
9.697087287902832
9.6702299118042
9.62833023071289
9.877302169799805
9.620342254638672
9.741684913635254
9.66943645477295
9.600203514099121
9.703824996948242
9.645246505737305
9.774272918701172
9.732706069946289
9.739838600158691
9.782464981079102
9.777366638183594
9.638287544250488
9.741188049316406
9.77691650390625
9.798290252685547
9.797430038452148
9.674310684204102
9.680925369262695
9.749117851257324
9.506816864013672
9.621259689331055
9.991127967834473
9.675626754760742
9.690793991088867
9.741299629211426
9.697750091552734
9.634108543395996
9.65038013458252
9.757826805114746
9.515626907348633
9.673772811889648
9.65833854675293
9.540078163146973
9.71000862121582
9.757009506225586
9.46218204498291
9.762937545776367
9.688572883605957
9.742549896240234
9.534533500671387
9.75421142578125
9.669753074645996
9.679725646972656
9.667858123779297
9.616634368896484
9.769342422485352
9.627037048339844
9.677351951599121
9.684712409973145
9.684330940246582
9.711328506469727
9.634435653686523
9.603595733642578
9.55610466003418
9.93639087677002
9.707366943359375
9.75533676147461
9.734488487243652
9.53061580657959
9.616216659545898
9.61440372467041
9.718891143798828
9.587366104125977
9.684672355651855
9.62243938446045
9.676759719848633
9.741466522216797
9.64742660522461
9.510594367980957
9.659921646118164
9.70704460144043
9.562967300415039
9.869297981262207
9.520942687988281
9.673139572143555
9.640254020690918
9.619998931884766
9.755629539489746
9.648746490478516
9.525779724121094
9.697976112365723
9.6652250289917
9.777910232543945
9.652115821838379
9.644186973571777
9.694818496704102
9.472795486450195
9.72709846496582
9.685210227966309
9.747480392456055
9.728450775146484
9.663581848144531
9.740267753601074
9.800870895385742
9.524503707885742
9.569134712219238
9.650617599487305
9.396378517150879
9.558055877685547
9.681755065917969
9.720773696899414
9.600381851196289
9.649134635925293
9.525650978088379
9.748856544494629
9.769003868103027
9.782233238220215
9.665390014648438
9.802034378051758
9.864364624023438
9.640311241149902
9.752264022827148
9.56833553314209
9.578977584838867
9.693669319152832
9.656696319580078
9.664371490478516
9.472275733947754
9.608388900756836
9.527209281921387
9.915078163146973
9.545187950134277
9.673955917358398
9.547063827514648
9.586919784545898
9.65279483795166
9.71374225616455
9.648832321166992
9.715123176574707
9.519344329833984
9.656217575073242
9.686467170715332
9.7670259475708
9.7537841796875
9.586949348449707
9.753408432006836
9.694419860839844
9.768669128417969
9.586685180664062
9.578319549560547
9.579692840576172
9.610180854797363
9.630926132202148
9.770009994506836
9.690423011779785
9.680391311645508
9.686511993408203
9.755931854248047
9.71678352355957
9.634600639343262
9.76638412475586
9.682689666748047
9.543600082397461
9.876473426818848
9.741863250732422
9.884678840637207
9.867403030395508
9.788373947143555
9.607007026672363
9.725593566894531
9.636507987976074
9.487292289733887
9.696515083312988
9.84734058380127
9.857922554016113
9.629026412963867
9.721092224121094
9.589693069458008
9.528016090393066
9.737857818603516
9.457427024841309
9.509567260742188
10.054386138916016
9.671650886535645
9.77784538269043
9.767292022705078
9.648043632507324
9.5983304977417
9.665900230407715
9.632832527160645
9.81266975402832
9.584232330322266
9.567081451416016
9.542908668518066
9.41728687286377
9.83333969116211
9.580971717834473
9.714351654052734
9.80176067352295
9.652156829833984
9.628707885742188
9.524557113647461
9.808309555053711
9.630081176757812
9.65919017791748
9.573722839355469
9.299298286437988
9.916482925415039
9.65673542022705
9.611072540283203
9.778336524963379
9.620341300964355
9.693608283996582
9.696991920471191
9.54793930053711
9.560261726379395
9.758099555969238
9.710195541381836
9.685283660888672
9.686829566955566
9.647480010986328
9.735310554504395
9.65472412109375
9.730844497680664
9.719452857971191
9.714581489562988
9.475909233093262
9.519824028015137
9.640554428100586
9.659725189208984
9.883319854736328
9.410382270812988
9.662189483642578
9.394598960876465
9.591547012329102
9.69679069519043
9.641987800598145
9.600201606750488
9.655683517456055
9.54748821258545
9.42158317565918
9.653741836547852
9.382394790649414
9.6023530960083
9.840182304382324
9.529364585876465
9.539592742919922
9.785682678222656
9.71264362335205
9.80705451965332
9.62097454071045
9.780055046081543
9.649127960205078
9.713639259338379
9.626322746276855
9.641210556030273
9.595685958862305
9.66440486907959
9.63731861114502
9.677446365356445
9.887030601501465
9.671320915222168
9.745500564575195
9.662129402160645
9.837047576904297
9.527256965637207
9.512913703918457
9.647550582885742
9.621805191040039
9.91341781616211
9.646966934204102
9.691637992858887
9.656750679016113
9.75920581817627
9.729069709777832
9.765643119812012
9.872875213623047
9.565238952636719
9.394516944885254
9.694171905517578
9.646879196166992
9.696512222290039
9.497360229492188
9.673254013061523
9.642887115478516
9.744039535522461
9.7116060256958
9.70380973815918
9.67672061920166
9.661520957946777
9.583647727966309
9.382328033447266
9.874730110168457
9.598687171936035
9.683774948120117
9.814083099365234
9.532827377319336
9.653307914733887
9.640342712402344
9.746070861816406
9.620180130004883
9.655311584472656
9.529830932617188
9.618865966796875
9.802818298339844
9.611736297607422
9.540122032165527
9.708000183105469
9.479856491088867
9.63516902923584
9.640239715576172
9.675597190856934
9.736066818237305
9.710601806640625
9.829516410827637
9.682828903198242
9.715455055236816
9.660941123962402
9.798149108886719
9.586753845214844
9.652129173278809
9.642644882202148
9.696627616882324
9.663430213928223
9.739054679870605
9.617109298706055
9.62341594696045
9.71752643585205
9.70214557647705
9.604598999023438
9.78232479095459
9.69000244140625
9.64356803894043
9.608358383178711
9.627179145812988
9.656770706176758
9.525866508483887
9.641216278076172
9.67919921875
9.706737518310547
9.463348388671875
9.507017135620117
9.70480728149414
9.600896835327148
9.61916732788086
9.746313095092773
9.663448333740234
9.846323013305664
9.581685066223145
9.695693016052246
9.55832576751709
9.702203750610352
9.625666618347168
9.7333402633667
9.569042205810547
9.657576560974121
9.691693305969238
9.609996795654297
9.650962829589844
9.49720287322998
9.758487701416016
9.521677017211914
9.618499755859375
9.474156379699707
9.755143165588379
9.521320343017578
9.626020431518555
9.878792762756348
9.74775505065918
9.643207550048828
9.612523078918457
9.722424507141113
9.592191696166992
9.7485990524292
9.888849258422852
9.712547302246094
9.888287544250488
9.776424407958984
9.712745666503906
9.733542442321777
9.602862358093262
9.571772575378418
9.529870986938477
9.797226905822754
9.737689018249512
9.5388822555542
9.730979919433594
9.6287202835083
9.73581314086914
9.757170677185059
9.468775749206543
9.817734718322754
9.548609733581543
9.703322410583496
9.604186058044434
9.825997352600098
9.658188819885254
9.559550285339355
9.710569381713867
9.729525566101074
9.667572021484375
9.593521118164062
9.825057029724121
9.711555480957031
9.747493743896484
9.719114303588867
9.778288841247559
9.584942817687988
9.5986909866333
9.69943618774414
9.627815246582031
9.60374641418457
9.971994400024414
9.696900367736816
9.541930198669434
9.708342552185059
9.666650772094727
9.642969131469727
9.648359298706055
9.728384971618652
9.615164756774902
9.730978012084961
9.65540885925293
9.72378158569336
9.694626808166504
9.778885841369629
9.672027587890625
9.702287673950195
9.774996757507324
9.756479263305664
9.827919960021973
9.60550594329834
9.644914627075195
9.60876178741455
9.826730728149414
9.653554916381836
9.704792976379395
9.524538040161133
9.625374794006348
9.651565551757812
9.457590103149414
9.818649291992188
9.593615531921387
9.73414134979248
9.734573364257812
9.692239761352539
9.619396209716797
9.684839248657227
9.677997589111328
9.618673324584961
9.435226440429688
9.832386016845703
9.610940933227539
9.592538833618164
9.531879425048828
9.716379165649414
9.678023338317871
9.709717750549316
9.654947280883789
9.57748031616211
9.507165908813477
9.724234580993652
9.869154930114746
9.609380722045898
9.507027626037598
9.727017402648926
9.729754447937012
9.704737663269043
9.690731048583984
9.706550598144531
9.755329132080078
9.752405166625977
9.68652057647705
9.844317436218262
9.667344093322754
9.65381908416748
9.436108589172363
9.572257041931152
9.775775909423828
9.724969863891602
9.672788619995117
9.767441749572754
9.625456809997559
9.844679832458496
9.616379737854004
9.760272979736328
9.661967277526855
9.67929744720459
9.741349220275879
9.696781158447266
9.692996978759766
9.658125877380371
9.524843215942383
9.700011253356934
9.757429122924805
9.70389461517334
9.638617515563965
9.672152519226074
9.498002052307129
9.657876968383789
9.668254852294922
9.760560989379883
9.686226844787598
9.527525901794434
9.677963256835938
9.718343734741211
9.667461395263672
9.893038749694824
9.500450134277344
9.620555877685547
9.565430641174316
9.620625495910645
9.567627906799316
9.484025001525879
9.734683990478516
9.67534065246582
9.658345222473145
9.819750785827637
9.552507400512695
9.587190628051758
9.676426887512207
9.651646614074707
9.761119842529297
9.444701194763184
9.68392276763916
9.628594398498535
9.472290992736816
9.681201934814453
9.750775337219238
9.655757904052734
9.792879104614258
9.629775047302246
9.632387161254883
9.634260177612305
9.81222152709961
9.720464706420898
9.636841773986816
9.640300750732422
9.656144142150879
9.635875701904297
9.811870574951172
9.640254020690918
9.658973693847656
9.713379859924316
9.657947540283203
9.611295700073242
9.724272727966309
9.645256996154785
9.644176483154297
9.766887664794922
9.864484786987305
9.699225425720215
9.554200172424316
9.8432035446167
9.598692893981934
9.627829551696777
9.578558921813965
9.67999267578125
9.78179931640625
9.679460525512695
9.561771392822266
9.683723449707031
9.651859283447266
9.677082061767578
9.57559871673584
9.60844612121582
9.525834083557129
10.04536247253418
9.587270736694336
9.716472625732422
9.658836364746094
9.72167682647705
9.493972778320312
9.724834442138672
9.645435333251953
9.669883728027344
9.523178100585938
9.708281517028809
9.83720588684082
9.696971893310547
9.647249221801758
9.480782508850098
9.758959770202637
9.852900505065918
9.434991836547852
9.622077941894531
9.6726655960083
9.646977424621582
9.687734603881836
9.797292709350586
9.733033180236816
9.755805015563965
9.636974334716797
9.641568183898926
9.974982261657715
9.58293342590332
9.740029335021973
9.71700382232666
9.572809219360352
9.760900497436523
9.549239158630371
9.59351634979248
9.414511680603027
9.870428085327148
9.541056632995605
9.627816200256348
9.469464302062988
9.789358139038086
9.716520309448242
9.839326858520508
9.782928466796875
9.80305290222168
9.67648696899414
9.704315185546875
9.78077507019043
9.790148735046387
9.645255088806152
9.608516693115234
9.288274765014648
9.388400077819824
9.715526580810547
9.564005851745605
9.768460273742676
9.713540077209473
9.734664916992188
9.7157621383667
9.637282371520996
9.642110824584961
9.600789070129395
9.638107299804688
9.635896682739258
9.572408676147461
9.747952461242676
9.628687858581543
9.458849906921387
9.626440048217773
9.633678436279297
9.621257781982422
9.596985816955566
9.76644229888916
9.616198539733887
9.647464752197266
9.727426528930664
9.673212051391602
9.537590026855469
9.608128547668457
9.655487060546875
9.605541229248047
9.724071502685547
9.60381031036377
9.736599922180176
9.78079605102539
9.654889106750488
9.506244659423828
9.376742362976074
9.52591323852539
9.39587116241455
9.592259407043457
9.471912384033203
9.476869583129883
9.610550880432129
9.454508781433105
9.66271686553955
9.62814998626709
9.797163009643555
9.530038833618164
9.740372657775879
9.622679710388184
9.685087203979492
9.605006217956543
9.669766426086426
9.694257736206055
9.75888729095459
9.746604919433594
9.534590721130371
9.799623489379883
9.660183906555176
9.689775466918945
9.622486114501953
9.729008674621582
9.62123966217041
9.715222358703613
9.76856517791748
9.999610900878906
9.633220672607422
9.750386238098145
9.722328186035156
9.46288776397705
9.575963020324707
9.763175964355469
9.607695579528809
9.654951095581055
9.613182067871094
9.726616859436035
9.558812141418457
9.788372039794922
9.620170593261719
9.626138687133789
9.822368621826172
9.48244571685791
9.931573867797852
9.745656967163086
9.721293449401855
9.743510246276855
9.761940002441406
9.67007827758789
9.594229698181152
9.477243423461914
9.691415786743164
9.654573440551758
9.375723838806152
9.564672470092773
9.847412109375
9.78602123260498
9.748926162719727
9.637680053710938
9.690858840942383
9.678694725036621
9.694398880004883
9.664572715759277
9.77081298828125
9.647189140319824
9.707478523254395
9.73280143737793
9.593367576599121
9.674214363098145
9.70444107055664
9.732741355895996
9.749635696411133
9.734968185424805
9.7327241897583
9.571784019470215
9.568014144897461
9.435171127319336
9.68824577331543
9.682099342346191
9.617753028869629
9.515349388122559
9.732072830200195
9.792491912841797
9.594207763671875
9.545882225036621
9.552392959594727
9.689370155334473
9.831326484680176
9.684758186340332
9.64112663269043
9.586461067199707
9.728734970092773
9.474406242370605
9.533696174621582
9.560612678527832
9.949336051940918
9.829839706420898
9.746414184570312
9.642555236816406
9.689250946044922
9.63029956817627
9.612448692321777
9.79530143737793
9.661530494689941
9.586076736450195
9.782866477966309
9.701265335083008
9.632756233215332
9.64719009399414
9.751891136169434
9.607427597045898
9.530950546264648
9.483148574829102
9.784600257873535
9.707144737243652
9.567024230957031
9.792200088500977
9.345561981201172
9.652183532714844
9.544596672058105
9.668984413146973
9.74806022644043
9.492223739624023
9.723366737365723
9.636884689331055
9.73946762084961
9.633281707763672
